signal
32752
13488
32752
21376
7728
32752
9360
0
13328
272
0
0
0
0
0
0
0
0
0
0
0
0
0
0
0
0
0
0
0
25456
16304
7264
32752
7104
30880
32752
24224
32752
32752
32752
32752
28192
32752
32752
23904
32752
32752
32752
32752
32752
32752
32752
32752
32752
32752
32752
32752
32752
32752
32752
32752
32752
32752
32752
32752
32752
32752
29136
32752
32752
30928
32752
32752
29952
32752
31408
18256
32752
22304
21088
32752
19792
20096
32752
19232
20704
30848
16928
22384
31024
15776
19536
27152
28176
17280
19456
31504
25280
17248
14624
27344
25856
15344
28848
22352
14640
27872
16736
16352
25696
16800
32752
30112
6048
26976
12512
15744
21344
6464
19664
14224
10352
23152
8416
19696
22624
11840
28192
16784
20848
27216
11120
24848
14928
11552
21360
5120
18944
15920
7424
22384
8384
14992
19344
5424
21344
12368
11456
21376
5792
19968
16112
9584
21360
15328
7728
21872
14080
9088
23232
17472
7664
17696
22320
8016
15856
23952
15280
13408
32752
32128
9520
28144
16800
14416
26368
22928
12176
12720
28448
18448
17680
28512
17104
20784
29936
14512
27264
21952
11968
24240
9296
15968
19552
6592
22240
12688
12032
21872
7376
13792
22272
7248
19840
19648
10176
25104
12848
15296
24032
13632
13760
24864
12480
16096
25184
19568
10704
24016
20752
10560
25744
18144
12320
26272
15760
14624
27200
21376
32752
23920
11328
26864
20000
15664
27632
13072
22688
25296
13120
28112
17936
20016
28192
14048
28544
24464
19008
30160
14016
22080
21632
10784
24784
13088
16944
22864
9152
23360
17808
13184
25024
10912
20736
21808
12192
26352
14448
19552
24544
11472
26400
17424
16752
26224
11632
24512
21520
13232
27168
14320
19856
24240
11520
26560
17056
17248
25584
11072
25040
19776
15088
26928
13344
22384
24192
12384
27056
16400
18512
26144
11792
23120
26848
21904
32752
20608
13248
25296
23248
11392
23984
24688
11696
22192
26720
13520
19136
28576
15728
21920
28976
15792
19872
25264
11136
14128
22352
10048
12144
22384
11152
11488
22672
13184
10288
22576
17936
7968
19888
21008
8128
16720
21392
9136
14864
22512
12400
14032
23792
12192
15408
23760
11792
15216
24128
16880
11072
23408
17776
10768
23856
18848
12016
24400
17472
13696
25440
17280
14816
27840
32048
29312
20768
24112
12528
25152
22800
13792
25936
23600
14720
27424
24096
16432
29904
26592
17840
30720
28768
15888
25616
23632
11792
17248
23760
12576
14880
24752
15024
14944
24672
13472
16800
24512
12112
17952
24592
13088
17104
25248
16736
14400
26272
20400
14464
26816
18592
15552
26336
16176
17088
26240
16112
15984
25504
17344
14432
25408
19216
19728
32752
26352
12928
21408
25104
13840
20672
24976
13008
22544
24912
13504
23344
26912
15840
24944
29728
18016
22800
27072
14416
16368
23840
13440
15008
23920
14816
14016
24304
15904
13648
24352
17712
12224
23872
19952
11104
12336
10544
15808
21520
24544
23616
22560
10800
10096
15728
25104
24896
11488
14016
14944
21104
22016
32288
32752
19152
25696
16576
20464
24656
12976
27056
18672
18832
27248
14064
26256
24336
15648
25584
28640
15952
27456
29488
17600
17568
24656
14960
14800
23408
15456
11616
24928
19232
11216
24896
17536
13616
24992
15856
15664
24640
12032
21296
21536
12192
25424
15088
18000
23808
11184
24608
18400
15184
25216
11728
21664
21152
10992
20144
25632
17744
13616
24608
14336
13504
24720
21008
25648
32752
10352
19568
24960
14176
19248
24656
12064
22912
23984
13648
26208
22656
16320
29376
21920
19200
31072
21296
17472
26304
15920
14400
23952
14608
15376
23040
12592
12160
14832
24384
16304
10720
19632
23904
11632
19280
23600
12016
18992
22560
9872
21024
20416
10240
22528
16560
11264
22480
15760
11360
23088
13424
14320
22640
10272
16640
20928
8864
19760
21440
10320
19632
21968
21200
32752
15168
14176
25712
15376
18512
24512
12512
24944
20736
16576
27200
15392
23648
25680
16128
29376
22304
21472
29232
14656
23104
21600
12528
24336
14512
17552
22864
10992
23648
18224
14672
24496
12224
20784
22000
12464
25264
16400
17488
24272
11168
23184
20736
14032
25584
14992
19296
23648
11792
23888
21104
14544
26192
16784
20304
25664
13184
25584
20736
16688
26880
15200
22240
27744
25648
32752
14928
19904
25936
13120
24192
21536
15520
26720
15584
21888
25552
14688
27776
21696
20048
29744
18576
25856
26528
14560
25392
15872
15680
22288
10128
20944
18496
12592
23440
12608
17904
21536
10624
23024
16736
14352
23712
11792
19968
20624
12080
24736
15136
17760
23136
11472
23024
18288
14176
24144
12752
19616
21904
12656
25488
17552
16368
24880
12528
22480
21440
13424
25200
19280
29024
32752
8752
25200
20736
15248
25776
14096
21248
23008
13760
26480
18656
19328
27408
15536
27104
25888
19744
31168
19232
22368
24688
12480
23632
17936
14656
23856
12160
19792
20512
11648
23168
15424
15360
22912
11152
21472
19360
13392
24256
13696
18976
22528
11872
24048
16944
15968
23632
11824
21792
21088
13648
24928
15776
17952
23296
12432
24320
19584
15664
25072
13328
21744
22224
13664
25440
19008
29088
32752
9616
25264
21440
14992
26112
16464
20144
24992
13584
25840
20976
17696
27824
16448
25024
26256
17840
29920
19792
20448
24384
11632
22464
17408
13312
23424
11984
18224
20720
10704
22736
15472
15568
22496
10768
21600
19088
13408
23968
13344
18560
22064
11888
23888
17616
13664
24880
18672
13744
24640
21408
12608
23696
21216
12096
23120
22080
12368
22176
21872
12368
21984
22576
12736
18256
24880
24464
31600
20208
16544
17776
24400
14464
19184
24720
14544
20800
25312
16160
21424
28352
20528
19936
29952
24096
18128
26384
18432
14672
23872
16320
14800
23536
16208
14464
23680
17600
13616
23776
18512
13264
23360
20416
12256
21984
21344
11648
21120
21616
11600
21120
22416
12704
18944
24032
14256
15904
24928
18752
13424
21104
24352
13440
21120
24048
12896
21664
23344
12864
22560
23024
18016
32752
28368
12640
21664
24688
14176
19504
25872
16224
18304
26480
17696
18992
27904
19104
21168
29424
19200
22336
26896
15024
16512
23280
13600
14176
22768
18688
11216
22112
18656
11840
22848
18112
12768
23600
17088
12640
23280
19264
11984
22688
19872
11792
22336
20464
11536
22208
20752
12240
23200
20256
19568
12192
20608
24336
17312
11248
21584
21440
12592
24080
20656
20128
12640
16224
25088
16320
16640
30832
29152
25152
23632
16128
20336
24576
13616
25376
21184
17200
26960
15744
23680
25344
16752
28720
20400
23184
28080
17040
26704
19216
12384
17936
20688
10992
17328
20848
13312
15248
21472
16480
13664
23184
15472
15152
23232
13424
19632
21616
12672
21040
22912
12880
19424
22416
12608
21088
22208
13232
22016
20976
14432
22304
21968
13456
24608
20064
12944
21264
24144
15584
17584
23200
25120
17712
18544
24848
15920
18656
26000
16624
18448
32160
30000
23056
23632
15536
19856
25040
14528
18032
25600
16304
20864
26912
21232
18128
28016
20512
23024
28928
18736
23344
23824
13024
21024
19440
13248
22576
13296
17232
20528
11360
21440
16960
14624
22352
13840
17792
20784
11968
22240
17088
15424
22848
13232
20176
20464
13440
23440
15472
18048
22400
12720
22624
18432
15184
23616
13792
20048
21616
13744
23856
17344
18384
24128
14064
22768
20432
15472
24688
16096
19248
23520
20864
32752
26224
12960
24992
19696
16912
24416
14976
21552
22592
15440
25664
18368
20752
25808
16752
26992
23408
21200
28352
17008
23168
20768
13472
22480
13760
16880
20832
11504
21408
16912
14752
22160
12064
20368
19744
13312
23392
15744
17920
22208
11792
21552
17664
13680
22576
13248
18624
21168
12464
22992
16608
16672
23088
12848
22496
20288
15264
24688
14928
20592
22656
14032
24288
18640
16864
24752
14656
22464
21728
14576
24560
16272
19440
23248
13472
25616
27744
31328
22864
14880
21600
21488
13824
23888
17792
17488
24016
13968
23072
21824
16400
26656
18144
22960
26208
17424
27072
20208
16976
22736
12016
19632
18432
12496
22032
14096
17024
20976
12016
22080
17488
15328
22816
13232
20720
20400
13984
23696
15936
18112
22736
13328
22560
19712
15312
24464
16032
19264
22960
13776
23696
18944
16928
24464
14816
21552
22160
14928
24912
17280
19184
24016
14864
24528
20784
16064
24784
15312
20432
22512
14416
24448
22560
31760
32272
10416
24640
21104
16272
25120
16368
20864
23728
15184
25520
20592
18768
26432
17280
24592
25264
18592
27920
19632
19120
22496
12368
20176
17280
13584
21168
12336
18464
19168
12704
21664
15152
16880
21456
12768
22160
18288
15856
23328
13888
21200
20464
15008
23728
15376
19472
22032
13728
23424
17984
17296
23232
14768
21424
21392
15360
24384
16048
20064
22256
14320
23664
17376
18304
23808
14672
23680
19792
16384
24016
15200
20496
22480
14576
30176
31872
25536
21616
16512
22352
21648
15616
24208
21872
15008
23280
23984
16192
21760
26416
18080
22896
28784
20448
19856
24368
15024
15760
21280
13072
15248
21200
13152
15840
21552
14304
15088
22128
16320
14496
22192
18640
13104
21248
19728
12880
19376
21456
13360
19520
22704
14240
21472
22736
14624
22608
22432
14864
22192
24480
16960
18864
24976
18304
17952
24848
17728
18752
25328
17376
18464
24560
17856
17216
24272
19760
21936
32752
22000
14864
23648
22112
14112
22288
22032
14656
23152
22256
15664
24688
23456
17232
26592
25440
18192
26000
24240
14320
17296
21520
13648
15088
20704
13216
14752
20272
13600
15760
20544
13856
13216
14736
21216
19344
12864
12672
21248
18064
15664
22128
18336
15248
23120
15856
13824
22080
19824
13696
22560
19312
15744
23024
16976
16528
23744
16992
20928
22912
14864
23408
18320
17840
23088
14240
22592
26064
30816
30592
11760
22064
21440
13696
20752
21792
14368
22240
21024
16096
23296
23792
17136
25856
26448
18816
26736
24464
16432
21312
21712
13552
13824
21152
15264
14272
21488
14720
16256
21600
13152
17968
21888
13648
19696
22208
17888
16368
22544
18096
14384
20144
22672
14272
18592
23136
17376
18208
24576
19168
16176
24400
17424
18544
24208
19264
17056
24704
17136
17232
24000
16112
16736
25184
24384
32752
23456
14640
20208
22880
14112
22544
21136
15392
23904
20544
17824
26000
20896
20592
27760
19568
26304
26432
18864
25728
17456
17808
20944
12512
20944
17184
14928
21760
13088
19744
19408
13808
22320
15232
17792
21296
12912
21632
18528
15424
22624
14000
19872
20608
14144
22992
16448
17856
22032
13600
22368
18256
16576
22864
14080
20832
20976
14832
23200
18032
16272
24608
15264
21408
21552
14656
23552
17184
18208
22544
14496
29856
32752
19088
22240
17280
19488
22560
14352
22896
19872
16816
24240
16208
21360
22816
16864
26272
20848
22688
27616
18736
25152
21744
15536
22544
14544
16896
20448
12048
20512
17344
14400
21568
13184
18912
19696
13312
22128
16128
16976
21696
13232
20720
18944
14864
22656
14752
18256
21552
13456
21984
18176
15888
22528
14208
20128
20336
14496
22880
16272
18272
22544
14608
22720
19040
16592
23008
14384
20416
21568
14992
28928
32096
27568
18032
16000
22272
19808
16448
23776
16064
20928
22784
16016
25008
20480
20384
26368
18672
26048
26352
20544
27936
19312
19584
21984
12992
21072
17344
14944
21568
13136
19136
19936
13408
22432
15808
17344
21632
13472
21344
19312
15184
23168
14960
19520
21216
13856
22976
17776
17264
22864
14016
21504
20160
15056
23520
15872
19008
22528
14720
22944
20224
15936
23856
15712
20128
22224
14448
26304
29744
32752
20544
15472
22928
20304
16256
23888
15824
20448
22832
15616
24848
20016
20000
26192
17984
26128
25232
20672
27904
18288
19968
20976
12464
20752
16112
14608
20896
12240
18000
19776
12656
21616
16080
16080
21680
13008
20928
19008
14928
22624
14832
18896
21168
13760
22576
17216
17152
22576
13840
21120
20496
15152
23360
16096
18928
22048
14064
22784
19056
17616
24064
15232
21536
21024
15200
23680
16896
18832
23056
20592
32752
26336
14384
25520
16240
19920
22688
14880
23952
19328
18544
24464
16016
24064
23584
17808
26256
26752
19408
25088
25456
15792
18784
21840
13824
17056
21760
15600
15184
21520
15872
13904
20720
16720
13088
20272
17984
12864
20128
20624
13424
19744
21152
13360
19248
21504
13952
19136
22192
15376
17648
23168
16288
17536
23280
16832
17280
24128
19904
15072
22944
20064
14544
22480
20592
18784
32752
26912
12240
22320
22368
14640
20032
23232
15744
18272
24880
19520
18432
26512
22240
20096
28640
24256
19280
25360
20128
13984
21120
18544
12048
19216
19744
12016
17392
21152
13488
16832
21696
13488
17856
21440
13232
18880
21440
13056
18000
21680
13936
16736
21840
14992
14288
14352
22064
20704
13408
17680
23104
17168
16784
24048
16144
16640
23936
16352
17296
29696
32752
14944
21232
21184
13936
23392
16096
13200
18112
3584
6704
1120
0
0
0
0
3168
688
7712
9424
912
11584
4320
5776
13360
3232
12288
18352
8880
10768
19584
19760
11488
20864
18816
10112
21392
19152
13728
26560
21232
15872
27792
22336
18416
30032
21744
20272
29904
19520
17808
25536
13360
18816
25440
15328
15856
21216
5616
5264
19504
11792
4800
20112
30976
32016
10864
27888
17408
14512
27824
23648
15232
23664
14208
12752
19312
7600
12656
14624
3344
9360
12560
3648
8256
12560
4944
8656
10640
1328
8624
8112
0
8816
9456
4176
15968
12976
11296
22240
19312
17904
27808
20400
27376
31456
23904
32752
32752
32752
32752
32688
32752
32752
32624
32752
32752
32752
32752
32752
32752
32752
32752
32752
32752
32752
32752
32752
32752
32752
32752
32752
32752
32752
32752
32752
32752
32752
32752
32752
32752
32752
32752
32752
32752
32752
32752
32752
24192
28784
25280
20624
25984
18288
21952
21744
15632
21280
14496
14608
16608
8608
14464
11008
8128
14256
6464
11984
12272
7040
14480
8000
10368
14112
7120
15808
12848
11392
17584
9472
14976
15808
8800
17008
11696
12352
16960
9408
17232
22784
29472
25920
9888
20224
18752
14048
21296
15280
18272
21072
14816
22272
19504
18288
23744
17024
23520
23376
19824
26048
18544
19712
19712
13104
19392
15040
14592
18640
12016
17808
17072
12992
19120
14784
15728
19120
12816
19360
16688
14704
19984
14000
18208
18528
14144
20320
15008
17280
19408
13472
19680
16832
15712
20624
14320
18688
18400
13952
20192
14944
17024
19200
13568
25792
30928
25712
17248
15504
18512
18896
14720
20112
18640
15936
21760
15952
20352
21168
17504
24320
19808
22688
24992
19664
24768
18784
17328
19744
13152
18464
16752
13936
19696
14112
17344
18704
13776
20096
15568
16912
19824
13888
20112
17184
15952
20880
14784
19152
19728
15440
21584
16736
17664
21568
15152
21168
19376
16912
22000
15664
20112
20416
16016
22048
16928
18880
21184
15808
22208
19216
18176
21952
15712
20880
20432
16656
22480
17072
23632
32752
29344
20000
19904
18848
22176
15824
21696
20016
17456
23152
17232
21632
22560
17888
25216
21488
22496
26432
20256
26176
22480
18640
22176
14960
18672
17648
14464
20000
14560
17472
18944
13472
20064
16544
15888
20208
13984
19264
18528
15216
20736
15056
18576
19712
14944
21248
16944
17792
20928
14928
20672
18752
16832
21600
15488
20000
20144
15920
20880
19440
15456
20288
20144
15552
20816
21200
15904
20496
21072
16384
20400
21520
16544
21568
32752
30992
14448
24336
18752
18480
22736
18592
19664
23456
19040
20848
24208
19456
21904
25616
21808
22800
26352
23920
17712
20848
18656
14976
19664
17568
15040
19904
17120
15632
20160
18016
15600
20432
19248
15184
19440
20096
15088
19008
20512
15632
19280
21360
16160
19680
21504
15952
20688
20864
16096
20832
21168
15600
20144
20432
15408
17168
21488
17552
17792
20848
15408
15632
19344
15152
16608
22432
25696
32320
24080
19248
17200
21904
19104
15200
21056
19984
14592
20240
20752
21808
15968
24960
24992
16608
12208
14208
15120
6784
7936
11216
6560
4560
7760
11008
3920
8320
9488
3408
9360
9824
3792
10944
7952
5184
12352
5152
10160
11744
6640
15312
12064
9584
16496
9120
14048
15152
9536
17696
12160
11520
18880
14544
12544
19280
19392
13680
21104
21584
15968
22672
24560
17584
25904
27920
19312
27648
29424
25680
32752
32752
26176
32752
30944
27520
32752
31568
29616
32752
32752
32752
32752
32752
32752
32752
32752
32752
32752
32752
28624
32752
32752
28880
24624
32752
29936
23456
31392
29280
22768
31136
27120
21664
28752
24256
17232
23520
16672
16928
26080
24640
21360
29488
26480
21856
30640
28096
23168
32752
26864
24096
30112
19280
23472
24384
14496
20912
15088
11536
16128
5600
12256
11408
9712
26160
13424
1376
12848
2048
11296
7440
5152
12816
4752
12400
13520
9120
18144
13344
14160
19120
13840
22688
20368
18064
22000
13120
17120
17184
11856
18224
13248
14080
16800
10736
16960
15120
13856
18608
12992
17072
17312
12688
17024
17264
11472
16560
15648
12272
17440
12960
15136
17488
12464
19056
18384
16128
20320
14704
20080
19568
17072
21632
16800
19984
21888
17520
22832
20624
26640
32752
29584
20880
25600
21520
26432
21616
24496
25824
21888
27168
24096
24704
27872
23616
28688
27600
26352
30576
26128
27520
26320
20416
23840
19648
19440
21616
16816
21152
19488
17968
21680
16976
20560
20512
18000
22000
18048
19840
21760
17376
21824
19440
18368
21216
16352
19920
19136
16688
20640
16592
18272
19936
15600
19968
17712
16976
20432
15952
17808
19232
15024
19168
17200
16288
19232
15984
27296
32752
16256
19120
17056
17264
19680
15328
19728
18304
17200
21152
17088
20256
21616
18512
23600
21312
22176
25104
20256
22896
20080
16464
19344
14640
16864
17920
14032
18592
16192
16048
18960
14848
18496
18688
15440
19728
16464
17072
19424
15056
19184
18032
16464
20016
15840
18736
19200
16224
20480
17568
18048
20256
16160
19824
19040
16896
20704
16160
19184
19952
16352
20608
18512
18672
21472
16448
20288
19888
17216
21248
17696
18592
22176
28352
32752
16720
18512
21888
17408
19776
20640
17216
21600
19232
19520
22496
18320
22960
22208
21120
24912
21712
24496
24992
20112
22720
18192
17664
19136
14800
18800
17616
15744
19504
15552
17904
18736
15376
19824
16672
17456
19792
15760
19600
19072
16912
20912
17136
19008
20416
16720
21216
18480
18176
21392
16768
20688
19776
17696
21600
17264
20192
20496
17056
21712
19200
19552
22032
16992
21216
19696
18304
21936
17488
20352
25328
30400
29232
18960
19120
19120
21968
18144
17984
22304
20816
18496
22640
22688
19584
24352
24240
21504
25552
24304
19392
21568
18560
15392
18848
17728
14368
17408
18832
14816
17504
19168
15728
16832
19696
15632
17728
19728
15696
18368
19616
15552
18736
19648
15824
19456
20224
19056
16592
20800
19648
16560
19872
20544
16640
20176
20240
16608
20704
20704
17504
20768
20432
16688
20336
20896
17056
19376
27136
31392
25200
19232
17936
20048
20528
16768
20384
21216
17568
20448
22560
18928
21808
24432
23808
21824
25904
24256
19136
20464
19648
15312
18752
18592
15424
19184
19520
17456
15664
19072
19712
19840
18368
15792
19232
18304
16864
19648
19440
18096
16768
20544
19600
16608
20144
19504
16896
20896
18448
17872
21744
17712
19728
20928
17312
21536
18720
19008
21248
17136
21200
19984
19136
22384
17424
19072
21056
17664
19184
21280
17264
24160
32752
22784
17616
22640
16608
20112
20896
16768
21856
20480
18736
22240
20528
20000
24544
23424
21152
25152
24864
20480
21936
19472
15584
19520
16064
15200
18960
15840
16320
19344
15232
16128
19232
16752
15744
18944
19200
18880
19712
17584
17536
19248
20352
16144
19280
20384
16352
20416
19696
16352
20992
19792
17168
20672
19056
17008
20448
20368
16576
21616
20512
17744
20976
19328
17392
21104
17968
18480
22864
27760
32752
17520
18560
22256
17664
20240
21088
17920
22352
19536
20400
22864
19088
23584
22800
21792
26064
22352
25376
25536
20752
23200
18224
18176
19184
15168
18912
17328
15856
19456
15376
18192
18944
15760
20016
16864
17696
19824
15744
19984
18048
16944
20496
16272
18864
19696
16304
19840
18288
17584
20768
16544
19392
19904
16768
20992
17760
18640
20608
16528
20624
18592
17808
20784
16896
20000
21024
17440
21296
17840
18976
21056
17088
20976
19712
25552
32752
22352
18560
21920
17536
21616
18128
19536
21392
17632
21872
20592
19680
23232
19840
23008
24368
21648
26352
23008
22800
22736
16928
19920
17392
15968
18976
14816
18064
18000
15024
19552
16352
17248
19232
15152
19360
17840
16800
19840
15920
19056
18960
16400
20336
16720
18576
19712
16384
20320
18560
17552
20784
16848
19520
20304
17056
21296
18160
18944
20944
17008
21072
19136
18432
21376
17136
20368
20256
18272
22352
18544
19328
21248
17264
20896
20096
17840
21952
23984
32752
27968
15024
23216
18096
19120
21168
17264
21568
19472
19152
22256
18624
21872
22592
20288
25056
22192
24256
25808
21312
23456
19248
17744
19520
14896
18416
17328
15968
19600
15600
18224
19088
15664
19680
17744
17168
20080
15824
19312
18816
16576
20320
16432
18592
19472
16240
20352
17648
18112
20400
16432
20096
19232
17312
20720
16960
19392
20128
17024
21216
17936
19008
20848
17056
21168
18896
18512
21216
17168
20480
20096
18064
21728
19584
18992
21168
17072
20864
19664
17920
21248
19152
31280
32752
15776
22112
18544
19408
20928
17104
21360
19104
18928
21936
18048
21840
21552
19888
24112
20960
23984
25024
21280
22976
21328
16880
19920
16336
16848
18736
14976
18416
17792
15472
19504
16256
17280
19184
15392
18928
17888
16768
20064
16160
18768
19296
16288
20240
16976
17968
20016
16560
18784
20352
17232
18032
20816
17824
17920
21168
17904
18624
21248
17424
19024
21040
17424
18800
21136
18752
18960
21840
19328
17600
20992
20272
17728
20976
22240
29488
32752
15664
19376
20864
20688
17456
20704
21184
17968
21184
21952
18768
22624
23392
20960
25056
25248
22192
24112
21984
16960
18896
18592
15264
17744
18912
15600
17584
19360
16048
17072
20000
17952
16480
19856
18976
16272
19632
19376
16272
19856
19280
16448
20128
19008
16768
20400
18976
16912
20096
20016
16912
19936
20448
17024
20320
20256
17376
20992
20096
17632
21360
20000
17584
21248
21200
18160
17184
19024
21568
19168
17056
18960
31824
29888
15152
19264
21024
18912
17408
18544
21664
19904
19056
22576
21136
20320
24272
22208
23344
25744
22176
23520
21408
17408
20064
16352
17264
18720
15232
19104
17168
16112
19104
15408
15600
18736
17904
15664
17696
19552
16704
16944
19424
17088
17824
19744
15680
19088
19376
16992
18736
19584
16752
19056
20176
16912
19744
19664
17520
20064
20032
17504
20560
20048
17872
21152
18768
18512
21360
18736
19776
20816
19120
17248
20368
19440
16912
19296
32400
32192
14960
22800
19424
18064
21216
19312
18416
21488
19648
19760
22368
21200
21504
24240
22736
22448
25472
23728
19648
20256
18832
16368
18672
16144
16832
18704
15584
18048
18480
16208
19712
18304
17232
19760
16672
18736
18864
16768
19616
17120
18064
19216
16624
19648
17984
17920
19904
16912
19536
18992
17520
20272
17792
19024
19952
17552
20432
18688
18640
20464
17568
20144
19408
18432
21376
18656
20032
20224
18016
20736
18864
18912
20688
19472
31648
32752
15568
21232
18800
18896
21328
18144
20800
20416
19264
22096
19632
21696
22416
20880
24304
23344
23584
26192
22656
23824
21360
18016
19648
16224
17424
17888
15424
18528
16432
16896
18608
15616
18720
18000
16864
19376
16640
18416
19136
16608
19600
17632
17904
19648
16704
19440
18608
17680
20128
17136
19488
19392
17504
20416
18016
18944
20032
17408
20480
19376
18592
21360
17792
20048
19728
18656
21248
18048
19680
19872
17664
20368
18272
18672
21168
25312
32752
23584
17440
22592
17904
20528
20512
18032
21680
18768
20176
21888
18816
22944
21536
21648
24816
21728
25520
24880
22144
23696
18496
18720
18912
15312
18960
16496
16448
18864
15008
18560
17168
15968
18960
15312
18128
18144
15904
19360
16432
17904
18752
16224
19328
18000
17520
19984
16752
19440
19392
17328
20592
17504
18768
19552
16064
18976
16368
15792
17184
13424
15936
14864
12688
15520
12736
15024
15568
12848
16016
14096
15184
17424
14368
18320
20272
27904
32752
13808
20928
20384
17728
21248
19312
19952
22240
19040
22976
22064
21216
24832
21888
24640
26288
23616
27936
25472
23520
24128
18896
20928
20080
17392
21168
18080
19152
20848
17360
21104
19664
18816
21520
17808
19920
19744
17088
20912
18288
18992
21008
17664
21264
20096
18592
22272
18656
20592
21504
18608
22272
19504
19920
21920
18192
21712
20160
19216
22016
18176
21120
20896
19056
22608
19088
20192
21328
18048
21696
19504
19168
21648
22880
32752
29312
14272
23248
17856
20240
20768
17760
21712
19120
19760
21984
18000
22752
21776
20992
25120
22800
23408
26320
23056
18992
20704
18528
14992
18432
17520
14672
17984
17824
15088
18032
18528
15296
17760
19088
15824
17744
19328
15856
18208
19216
15952
18848
19152
16032
19120
18992
16896
17424
20000
18800
16000
19744
19856
16800
19760
19296
16512
19520
19728
16768
20288
29680
32752
16208
20784
17328
19296
20352
17520
19744
20912
18144
21120
21808
19600
22960
24048
21984
24864
25904
22224
20816
20768
16560
17296
18192
17024
15680
18592
17136
16000
18864
17552
16400
19328
17984
16752
19824
17984
17184
20016
17648
17616
20064
17488
17408
20000
18224
17072
17216
19712
19520
16544
19120
21104
20160
17616
18256
19424
17840
16848
20048
30192
32752
18736
21824
17824
19168
20416
17440
20240
20496
18992
22064
19664
21136
23024
20640
24576
23920
23760
26272
21920
22304
20400
16944
19168
16208
15888
17680
15856
16240
18752
17984
15184
18736
17744
15984
18688
18784
16000
19312
18848
16896
19488
18720
17952
19024
13808
12736
18560
21648
23568
24720
21104
21024
21792
19472
20944
22848
20336
22640
24768
23328
24976
26272
25552
22768
24400
20688
18352
19264
18192
14800
16368
17808
14704
16368
18432
15024
16688
18544
15472
18128
19072
16192
18224
19344
16496
17728
20160
18480
17296
19600
18656
17824
20144
17248
19168
20096
17120
19984
19456
17776
21376
18384
19424
20864
17776
20832
19552
18592
21056
18208
20112
20544
18048
21056
19344
18976
21376
18144
20656
20496
18480
21120
18624
19872
20672
18384
21776
20176
19408
21136
18032
20624
20208
18576
20992
20976
31680
32752
15152
22096
19200
18976
20624
17392
20512
20128
18512
21696
18384
20944
22480
19920
23408
23120
22096
25360
23056
22544
22608
17872
19280
17936
15792
18560
15808
17152
18064
15360
18688
16848
16912
18752
15840
18640
17936
16624
19088
16464
18112
18656
16416
19424
17536
17600
19456
16560
19328
18592
17328
20000
17216
18736
19632
17312
20864
18720
18656
19984
17280
19856
19504
17632
20512
21744
32640
31744
12416
22240
18800
18928
20656
17776
22176
20256
19600
22864
18688
22400
22976
20416
25584
22320
24400
26304
21152
24448
19536
17536
20160
14576
18384
17840
14864
19792
15488
17504
19328
14768
19664
17968
16848
19232
16352
18272
18800
16544
19696
17328
18160
19584
16560
19712
18288
17760
19952
16848
19504
19072
17248
20240
17504
18768
20320
17888
21152
18832
18464
20576
17360
20352
19504
17776
22512
27760
32752
19808
18112
22112
18240
18752
21280
17440
21040
20256
18912
22544
18768
22128
22896
20544
25584
22160
24496
25600
20368
23264
18464
17616
18304
15552
18080
17664
16224
18576
16528
17744
18464
16464
18896
17472
17600
18944
16784
18928
18560
17296
19376
17264
18544
19248
17040
19728
18304
18208
19648
17312
19488
19056
18224
19776
17856
19376
20144
18608
20880
18528
19136
20064
18048
20096
19120
18384
22000
27968
32752
18608
18720
21280
18336
19456
20096
18320
20576
19424
19504
21488
19328
21888
21824
21632
24112
22672
24352
24544
20944
21312
18512
17344
18112
15088
17648
17520
16080
18128
16432
17408
18320
16256
18624
17328
17184
18752
16880
18528
18512
17216
19392
17200
18480
19120
17088
19424
18400
17856
19808
18608
17648
19712
19520
17648
19648
19648
18208
19792
20640
18096
19360
20192
17968
19824
20080
18320
27328
32752
19152
19168
20768
18144
19904
20368
18208
20256
21344
21072
19968
22576
23104
21920
24384
25296
23616
23792
22144
18016
18800
18416
16064
17840
17920
16576
16864
18672
17280
17008
19008
17664
17408
19152
17360
17952
19376
17408
18240
19472
17504
18208
19552
17952
17968
19744
18368
18240
19984
18560
18304
20112
18224
18608
20496
19120
19200
20368
18976
18464
20368
19360
17936
21408
30880
32752
17056
21808
18032
19360
20160
19760
17952
19920
21088
19088
19872
22112
23664
22192
23520
24848
22656
18688
17680
17728
17712
15680
16608
18192
17168
16512
18464
17248
16784
18848
18336
16576
18224
19664
17360
18528
19648
17488
18768
19632
17488
19152
19376
17856
17104
18208
20112
19312
17904
19168
20400
19024
18288
19952
19312
18304
20448
19920
18192
19264
20320
18512
18560
19584
23856
31376
28016
18992
19136
18416
19776
18560
18048
20560
20432
18928
20768
22336
22144
21216
23360
25376
23600
20336
20096
18768
16768
16240
17536
17552
16032
17760
18048
16336
18208
18896
16336
18352
18832
16784
18944
17648
17376
19072
19472
17312
19680
19024
17312
19968
18864
18208
19904
17872
19008
19552
17968
19776
19104
18464
20368
18160
19776
20048
18416
20624
19424
19328
20912
18816
21248
20528
19184
20896
18688
20224
20544
18720
20768
19952
27696
32752
22224
18864
21232
18944
20960
18832
20128
20832
19040
21568
20448
20672
22480
20640
23472
23328
23120
25648
23424
23824
22400
18672
19376
17152
15776
18352
15728
17280
17504
16016
18256
16528
17328
18464
16352
18736
17696
17472
18960
16720
18512
18672
17072
19184
17888
18144
19328
17216
19248
18640
18000
19664
17520
19216
19408
17904
20080
18256
19072
20000
17872
20224
19056
18512
20288
17984
20544
20480
18912
20656
18352
19520
20192
18032
20432
19200
24000
32752
29872
16656
21408
18480
20512
18432
19328
20544
18496
21056
20016
20240
21872
20288
22768
23104
22704
25184
23200
24288
22848
19264
19872
17392
17040
18080
15664
17968
17312
16432
18288
16256
17680
18160
16480
18848
17264
17664
19008
16736
19024
18272
17568
19312
17104
18624
19120
17136
19776
18256
18368
19712
17232
19728
19168
18192
20080
17872
19504
19696
18128
20432
18816
19520
20352
18224
20400
19136
19008
20416
18192
20080
19840
19200
21088
19024
19840
20096
18352
20544
19216
19216
20464
23584
32752
31872
15904
22000
17920
19472
19808
18144
20368
18976
19520
21072
19248
21616
21376
21152
23472
21984
24368
24624
22896
23616
19824
19216
18608
16320
17952
16960
16512
18192
16000
17952
17808
16544
18624
16880
17776
18736
16800
19104
17760
17824
19152
17072
19056
18528
17664
19504
17664
18672
19296
17504
19696
18208
18496
19680
17648
19632
18800
18272
19952
17648
19504
19552
18160
20032
18528
19104
19904
18080
20176
19040
19072
20240
18128
20368
20336
19216
20672
18464
19936
20336
18496
20560
18976
21424
31616
32752
17888
20624
19472
20480
18448
19904
20256
18848
21120
19696
20640
21792
20176
22768
22336
22672
24816
22992
24848
23840
20688
20864
17648
17696
17984
15840
17952
16752
16848
18160
16112
18304
17568
17072
18800
16864
18256
18592
17040
18848
17664
18016
19184
17072
19136
18416
17792
19312
16768
19216
19152
17632
19680
18064
18784
19664
17744
19856
18848
18464
20032
17984
19680
19616
18352
20064
18800
20144
20672
18560
20304
18976
19168
20240
18160
20160
23488
31280
32752
15088
21216
20368
18336
20528
18912
19520
20736
18832
21200
20528
20256
22336
20592
23168
23488
22992
25280
23056
23264
22064
17968
18336
18432
16368
16864
18432
16720
17168
18656
16848
17728
18736
16864
16528
18144
19120
17936
16656
17008
16784
18592
18720
16176
18768
18800
17280
18672
18576
17584
19360
18944
18128
19792
18960
18624
20432
18512
19776
19680
18880
21104
19376
19776
20272
18560
20512
19648
19232
20368
21888
31904
32752
14384
21376
19856
18352
20000
19584
18256
20560
20832
19664
21056
21984
20096
23344
23520
22528
25056
23376
21440
20768
18160
17312
18240
16960
16272
18160
16720
17024
18384
17952
17008
18448
18560
16848
19104
17072
17888
18384
18912
17120
16976
18560
19232
17776
18000
18400
20256
18224
18768
20288
19184
18112
20240
18528
19168
20544
19152
19584
20480
18608
18512
20624
18400
19440
22272
31424
32496
15648
20224
19552
20816
18416
20080
20624
18992
21968
20800
20880
22512
20976
23200
23488
23136
25280
23632
23984
22976
19200
19840
17904
16800
18080
15808
17552
17408
16288
18304
16576
17648
18256
16576
18416
17680
17376
18800
16768
18640
18480
17344
19056
17664
18256
19104
17344
19488
18336
18240
19408
17360
19152
19056
18208
20256
19024
17616
20368
17904
19712
19520
18144
20000
22528
32752
32112
13728
21952
19280
19008
20288
18320
20336
20048
19040
21456
19808
21296
22272
21168
23872
23072
23760
25328
22720
23264
20768
18288
18944
16480
17424
17648
16096
18176
16656
16080
18112
16960
18224
18432
16944
18976
17552
17984
19072
17184
19024
18352
17856
19424
17600
18912
19216
17696
19648
18192
18272
19632
17712
19856
20048
18608
20128
18400
19104
20048
18032
20080
18992
23568
32752
28928
16064
21584
18048
19888
18672
19024
20256
18400
20448
20768
19744
21968
20512
22224
23408
22320
24896
23856
23360
22816
18880
19424
17840
16736
17856
15936
17552
17680
16352
18480
16832
17632
18512
16448
18736
17712
17600
18896
16928
18752
18528
17584
19296
17520
18720
18928
17680
19328
18528
18224
19552
17616
19312
18992
18256
20352
18656
19744
19552
18224
20256
18688
19296
19872
18048
25024
32752
28176
16912
19904
19968
19744
18512
20480
18720
19872
20688
19216
21552
20512
21104
22816
21504
24000
24112
23488
24432
21488
20528
19520
16896
18400
16720
17040
17952
16160
18080
17392
17040
18528
16432
18464
18240
17168
18896
17264
18208
18976
17024
19200
18032
18112
19232
17376
19152
18800
17872
19584
17952
19120
19376
17824
19792
18320
18608
19360
18160
19920
19712
18544
20160
18192
19376
19744
18320
20032
19408
28512
32752
18640
18448
20240
19136
20448
18368
20352
20112
19248
21392
19664
20704
21968
20720
23376
22704
23504
24928
23104
24304
21872
19376
19552
16752
17600
17600
16016
18384
17392
16384
18208
18368
16768
18448
18720
16848
18560
18896
17152
18480
19120
17296
18560
19216
17536
18528
19568
17680
18448
19744
18096
18368
19712
19104
18976
20688
18832
18592
20160
19712
18224
19648
22208
30928
32592
16240
19872
19376
20272
18672
19520
20752
19136
20096
21600
20000
21744
23072
21824
23936
25168
23376
22560
21392
18432
16688
17968
17264
15824
18208
17456
16384
18400
17792
16784
18688
17936
17072
18848
18272
17312
19104
18576
17152
18784
19312
17568
18512
19568
18016
18544
19600
18096
18832
19776
17968
19120
19824
18240
18816
20528
19200
18512
18320
19696
19280
17776
18464
21232
31328
31472
15920
20896
17776
20016
18848
17504
20096
20288
19136
19424
22192
20720
21888
23536
22496
24432
25488
22832
23232
19920
18912
18880
16528
18240
17296
16720
18528
16576
18096
18144
16096
18384
17552
16608
17856
18560
17488
17792
18848
17968
17728
19136
18816
17280
19104
18864
17936
19456
18672
18160
19440
19136
18352
19664
18896
18192
20272
19120
18752
19904
18864
19168
20208
18384
19088
20752
18304
18656
20976
19792
18368
19856
19952
18928
18688
20240
20928
29424
32752
17312
19936
20208
20448
18576
20640
19856
19120
20752
21200
19984
21872
21920
21376
23776
23792
23600
24400
22368
20480
20176
17360
16608
18080
15968
17008
17808
16048
17760
17920
17072
18704
17584
17696
18928
17024
18784
18512
17520
19152
17744
18448
19152
17536
19344
18912
18256
19872
18160
19168
19648
18016
19552
18416
18560
19760
17920
19744
19360
18480
20288
18992
20320
20224
18336
20272
18800
19312
20240
17936
20848
28304
32752
22672
17488
19472
20704
18288
20272
19632
19136
20960
19280
20624
21296
20224
22512
21728
22832
24624
23328
24960
23504
20672
20416
17248
17808
17520
16208
17872
16544
16992
18000
16224
18208
17520
17200
18624
17232
18768
18960
17504
19360
17888
18304
19248
17440
19200
18592
17968
19488
17632
18960
19296
17840
19712
18368
18720
19552
17968
19504
19216
18496
19904
18176
19488
19648
18336
20672
19360
19792
20208
18128
20128
19200
18864
20048
18144
24816
32752
29840
17344
20192
19376
19856
18112
20208
19328
19344
20688
18992
21072
21088
20576
22784
21600
23424
24384
23216
24496
22464
19952
19792
16992
17632
17424
16096
17904
16416
17168
17728
16384
18112
17744
17104
18736
16960
18288
18752
17152
19200
18176
17936
19280
17392
19072
18864
17024
19744
18032
18368
19776
17792
19792
19184
18144
20032
17856
19104
19104
16800
20048
19104
18656
20752
18864
19568
20064
18240
20352
19472
18736
20976
25568
32752
24144
15168
21888
18608
19328
19936
18160
20496
19808
19264
21152
19312
21216
21520
20544
23232
22112
23168
24144
21232
21648
18576
16720
17552
14672
15696
15984
13792
15872
14672
14144
15584
13088
14832
14480
13024
15280
13312
13872
14864
12368
14848
13616
13248
14944
12304
14256
14176
12352
14496
11984
13536
14000
11856
14368
12496
12272
13792
11184
13792
13184
12336
15104
13168
15616
15040
11248
12064
10160
12192
11984
6784
2272
0
5936
9600
0
0
4176
3888
9024
9552
14704
22192
24528
28560
28736
29344
32752
32384
32752
32752
32752
32752
32752
32752
32752
32752
32752
32752
32752
32752
32752
32752
32752
32752
32752
32752
31536
32624
30896
29936
30544
27328
25984
25632
22736
21952
22688
21184
20768
22640
21504
21632
23744
22752
22432
24912
23856
23168
24688
23504
22848
23168
20640
16320
15600
13888
11264
11968
12736
18416
28688
15840
16752
16848
18832
19200
18736
21312
21360
21728
24256
24016
23008
23872
21888
20864
21088
19264
17344
16800
13952
11952
12848
13632
13104
15024
16896
16688
18928
20880
20688
22944
24400
24672
26976
27248
24528
23264
21440
17536
15120
13568
13824
15248
14912
16768
18016
18128
19792
23616
23680
23488
23328
23408
21440
20160
25776
26912
17152
17248
16928
17696
18784
18896
20912
22096
21360
20864
22720
21520
22640
23184
21344
21344
18448
17088
16864
14768
14688
15536
13728
15760
15344
14704
14912
16192
14928
15712
16800
15584
15728
17456
16208
15984
17552
15840
16624
17472
15936
17104
17808
16528
17152
18128
15920
18016
18384
17584
17472
18336
18608
18576
19312
17136
18816
18656
18368
17440
19712
30832
30432
14384
20896
19056
18416
19632
19632
18272
20608
20048
19568
21568
20624
21904
23440
22960
23936
24880
23568
20224
20080
18256
16400
17152
18416
16544
17504
17920
16544
17984
18224
16944
18304
17968
17888
18880
17520
18592
18832
17776
19184
18064
18416
19408
18048
19376
19120
18640
19856
18448
19568
19680
18720
20160
18912
19584
20048
18608
20176
19712
19984
20976
19104
19984
20176
19168
20464
19360
19600
21232
27280
32752
21280
18624
21472
18752
19888
19856
19040
20400
19392
19376
21472
19856
21728
22096
21760
23936
23408
24144
24864
22400
22064
19760
18208
18256
16704
17632
17584
16640
18016
16912
17360
17712
16400
18096
17744
17072
18368
17056
18128
18304
17216
18768
17808
18016
18832
17552
18896
18240
17904
19248
17760
19072
18960
18224
19568
18480
18736
19504
18112
19616
18832
18832
20320
18944
20192
19376
18720
20048
18640
19472
19664
18864
24896
32336
29040
15264
20288
20144
19600
19168
20384
19072
20368
20672
19888
21616
20640
21808
22848
22032
24272
24048
24160
24624
21888
20944
19296
17216
17872
16528
16912
17360
16144
17664
16976
16960
18032
16640
18080
17888
17280
18512
17264
18112
18256
17344
18880
18128
18080
18976
17584
19136
18688
17968
19616
18192
19152
19408
18256
19664
18752
18832
19712
18224
20000
20160
19376
20384
18624
19568
19712
18784
20096
18688
22512
31680
32752
17328
20256
19488
20016
18560
19792
19904
19248
20496
19872
20512
21424
20480
22464
22304
22816
24656
23344
24400
23104
20224
19648
17184
17456
17440
16208
17408
16608
17200
18048
16640
18000
17744
17136
18464
17232
18256
18480
17488
18928
17888
18288
18784
17632
19008
18528
18224
19376
18048
18832
19424
18064
19680
18544
19024
19616
18288
19792
19168
18976
20000
18496
19744
19984
19504
20704
19008
19504
19824
18608
20144
19232
18992
22256
28752
32752
18128
19568
20784
18688
19728
19760
18768
20368
19616
20000
21024
19952
21776
21808
21648
23952
23056
24448
24544
22608
21696
19680
17440
18096
17408
16288
17872
17408
16592
17952
17936
16800
17984
18224
17152
18160
18672
17472
19104
18896
17552
18848
18864
17424
18208
18640
17488
18704
19184
17936
18736
19536
18144
18832
19744
18800
18736
19920
18944
18688
20800
19888
19056
20016
19472
18800
20000
19456
18960
25936
32752
22720
18528
20560
18848
20128
19744
19168
20480
20320
19920
21488
21200
21216
23088
23136
23216
24960
24272
22144
20880
19472
16944
16816
17600
16496
16496
17696
17008
16944
18240
17344
17440
18544
17680
17744
18768
17648
17728
18832
18048
17856
18864
18208
18016
19216
18272
18432
19376
18448
18544
19568
18576
18592
19760
19488
19264
20080
19376
18736
18368
19248
19632
23696
32752
19168
21344
19072
18480
19344
19200
18112
19984
20304
19888
20144
22208
22032
22832
24208
23600
24272
23840
20528
20304
18384
17216
17872
16496
17440
17488
16496
18064
17264
17744
18288
17024
18736
18096
16800
18416
18288
17568
18128
19056
18304
17760
18912
18448
18208
19312
17776
18880
19360
18752
18816
18976
18832
19168
19568
18672
19312
19568
19648
20064
20400
18832
19120
20560
18624
19728
19168
21184
30576
29328
16736
19216
19872
19808
18352
19008
20176
20784
19776
21392
21456
21696
23264
24480
23584
24016
24400
20752
19568
19136
16944
17120
18144
16688
16656
18288
16384
18320
18256
16752
18752
18320
17520
19040
18224
18016
19248
18192
18224
19552
18064
19440
19328
18256
19600
18464
18896
19632
18240
19760
19136
18704
19808
18528
19328
19616
18384
19872
19296
19008
19888
18720
20336
20384
19328
20064
18928
19424
19920
18768
20064
19984
26160
32752
24256
16656
20496
17600
19232
18464
18576
19936
18672
20368
20800
20128
21920
21216
21600
23952
22912
24480
24576
22832
22368
19472
18448
18176
16448
17632
17168
16608
17808
16544
17696
17952
16928
18592
17504
17888
18688
17296
18752
18224
17904
18976
17520
18672
18752
17904
19184
18400
18496
19264
17968
19344
19056
18352
19648
18224
19168
19280
18480
19728
18832
19648
20400
18736
19584
19376
18768
20000
18656
19280
20448
27360
32752
20560
17904
21168
18592
20080
19488
19136
20464
19472
20192
21168
20032
21840
22176
22032
24032
23232
24544
24704
22640
21968
18992
17936
17936
16256
17440
16960
16512
17936
16416
17536
17696
16768
18400
17264
17792
18528
17264
18704
18176
17872
18944
17456
18416
18912
17856
19184
18080
18672
19200
18048
19408
18736
18368
19744
18336
19392
19408
18560
19536
18784
19280
19808
18592
19872
19264
19888
20608
19008
20080
19472
19136
20064
18704
19488
20752
27152
32752
22448
18400
21296
18592
20064
19344
19216
20432
19104
20624
20560
20208
21744
20880
22384
23344
22144
25136
23968
23584
22560
19344
19328
17792
16992
17808
16304
17392
17440
16576
17968
16704
17488
18128
16928
18400
17680
17760
18592
17312
18688
18512
17872
18944
17792
18592
18864
17760
19184
18368
18720
19360
18032
19424
18816
18640
19504
18096
19648
19280
18480
19920
18784
19248
19728
18560
19952
19216
19072
20512
19232
20480
19664
18800
20208
18784
19728
19856
18928
24400
32272
32352
16352
20320
20384
19456
19216
20096
18832
20288
20352
19968
21344
20464
21760
22288
22016
24032
23168
24432
24704
22144
21552
19584
17792
18208
16880
16896
17792
16944
16672
17728
17504
17152
17312
16464
16832
17184
17616
16112
16224
16928
17680
17664
16656
17552
18336
18192
17472
18496
19088
18480
17936
19632
18480
19728
19808
20704
21152
17600
18144
20016
22928
20096
21456
23520
32592
32752
15696
22096
21056
19936
21216
20304
20448
21328
20160
21664
21568
21040
22736
21904
23488
24064
23792
25408
24304
23232
21760
18704
18544
17632
17024
17792
16448
17504
17424
16576
18032
16880
17472
18016
16912
18320
17696
17600
18432
17200
18208
18144
17232
18656
17440
18128
18624
17472
18848
18128
18240
18992
17936
17776
18624
17120
18000
19168
18592
18352
19632
18288
18224
20256
19200
18320
19088
19792
18784
19376
19776
18624
23328
31760
32752
17040
20896
19360
20688
18768
20208
20176
19376
21040
20160
20896
21696
21024
23136
23232
23488
24960
22416
22224
21600
18496
17600
17680
16400
16576
17120
16288
17072
17680
16528
17440
17824
17104
17744
17568
17248
18176
18416
16976
18992
18256
18000
18912
18480
18096
18720
19328
17696
18848
18096
18240
19280
19088
18272
18784
19408
17840
19264
19040
18240
18592
19968
19792
19312
19936
20272
18144
20176
19776
19120
20080
19296
26048
32752
21184
19120
20736
19552
18272
19664
20336
19296
19696
21312
20000
21552
21728
21680
23984
23600
23872
24944
22784
22128
20336
17872
18512
17552
17152
18000
16736
17840
17712
16880
18416
17392
17664
18416
17136
18432
17968
17600
18736
17504
18608
18624
17888
19024
17920
18496
18880
17840
19264
18320
18400
19264
17872
19088
18912
18304
19584
18416
19168
19440
18128
19904
19104
19008
20256
19248
20304
19040
18816
20048
18928
19472
20048
18752
22384
31584
32752
16112
19328
20208
19936
18816
20176
19232
19600
20768
19600
21216
21136
21184
22608
22112
23520
24192
23632
24864
22736
21200
19872
17312
17792
16752
16384
17264
16048
17152
17296
16624
17920
16848
17568
17984
17152
18128
17904
17328
18464
17232
18224
18288
17568
18912
18080
18464
19008
17904
19216
18784
18608
19376
18256
19040
19280
18352
19600
18608
19184
19616
18592
20480
19728
19600
19968
18512
19824
19488
18848
19856
18992
26352
32752
25520
17392
20960
19072
20096
18736
19936
19936
19520
20704
19824
20816
21888
21200
22848
22752
23568
24800
23872
24560
22592
19936
19728
17568
17728
17600
16528
17696
16736
17104
17728
16592
18112
17472
17552
18432
17184
18528
18384
17568
18992
17744
17920
18912
17248
18816
18576
17984
19200
17984
18912
19120
18208
19616
18672
19056
19456
18384
19584
18928
18784
19648
18624
19504
19808
18928
20400
20640
19088
19744
19968
18864
19792
20000
18800
26592
32752
20032
19520
20528
18928
18928
20256
19984
19152
20624
20656
20128
21824
21904
21776
23808
23872
23632
24512
22336
19376
18976
17984
16368
17296
17520
16336
17248
17616
16480
17312
18016
16912
17888
18304
17264
18304
18480
17424
18560
18720
17584
18768
18816
18336
18016
19072
18384
18224
19232
18816
18336
19520
19008
18480
19728
19248
18688
20400
20064
18752
19696
19456
18624
19584
19856
19008
26048
32752
19920
17920
20656
18848
19440
20256
19584
19664
20992
20512
20512
22128
22688
22384
24176
24688
23936
24416
22528
19248
18624
17824
16208
16544
17472
16128
16928
17808
16816
17312
18032
17424
17792
18528
17456
17936
18208
17840
17904
18976
18128
18096
19248
18688
17984
19424
18960
18432
19440
19488
18096
19488
20224
18976
19552
19584
18624
19520
19824
18448
20992
31264
32752
14928
21472
18736
19456
19792
19216
19616
20800
20304
19904
21728
21504
21824
23696
23680
23856
25040
22880
20336
19584
17808
16560
17456
17104
16320
17168
17632
16640
17472
18080
16928
17744
18256
17264
18128
18608
17472
18432
18832
17728
18496
19056
17840
18544
18448
18960
18704
17888
18336
19072
19072
18320
19280
20096
19680
18240
19744
19344
18336
18256
19584
30848
32752
15424
21088
19792
19056
19376
20160
19296
19840
20912
20480
21120
22368
21952
22896
24480
24288
24288
23584
20784
18096
16768
17008
17360
16816
16432
17616
18096
16528
17840
18272
17040
17328
18464
17280
16864
18032
18592
18480
17776
18768
18624
17776
18832
19360
18592
18848
19616
18816
18688
19616
19776
18672
18896
19648
20048
20048
18656
18944
20080
19824
18544
19056
27184
32752
21344
19024
19664
18928
19344
19216
18720
19408
19840
19664
20736
20544
20592
22656
24096
22976
24032
24608
21584
21088
18768
17088
17968
16944
17056
17696
16704
18128
18208
17616
18752
18000
18064
18832
17488
18768
18576
17824
19120
17936
18432
19056
17872
19056
18848
18176
19360
18432
18816
19248
18064
19296
18848
18496
19504
18336
19280
19472
18704
19712
18880
19408
19584
19216
20624
19856
19200
19728
18672
19648
19600
18688
19984
23040
32144
32160
14400
20688
20208
18992
20160
19072
19760
20576
19488
20464
21136
20400
22208
21856
22656
23984
23104
24608
23824
21680
20864
18160
17904
17424
16352
17408
16384
16560
17552
16448
17728
17552
17216
18096
17072
18160
18208
17488
18656
17536
18224
18160
17456
18848
18000
18176
18880
17680
18800
18784
18240
19312
18224
18976
19168
18176
19504
18560
18752
20176
18992
19840
19296
18688
19792
18608
19328
19600
19200
27584
32752
24544
15328
20128
19792
19360
19216
20160
19280
20544
20720
20288
21840
21056
22224
23088
22736
24672
24480
24176
24608
21072
20368
18816
17088
17696
16480
16896
17216
16224
17248
16944
17088
17872
16688
17952
17792
17248
18272
17328
18208
18416
17568
18784
18032
18256
18640
17872
19072
18624
18352
19280
18016
19056
18896
18304
19504
18432
19424
20160
18800
20192
19072
18896
19968
18624
19792
19296
21632
32128
32752
15888
20752
19216
19984
19296
19536
20192
19344
20656
20624
20432
21808
21168
22320
22896
22704
24704
24208
24048
23392
20096
19872
18320
17168
17888
16544
17360
17488
16576
17808
16896
17312
18064
17072
18192
18144
17552
18688
17792
18400
18704
17792
18896
18336
18288
18896
17808
18912
18672
18288
19088
18528
19088
19488
18512
19744
18944
19168
19760
18496
20144
19968
19408
20144
18656
19520
19680
18672
20032
18976
21888
30400
32752
17648
20592
19424
19904
18704
19136
19840
18896
20480
19968
20304
21456
20640
22224
22624
22864
24528
23760
24304
23152
20368
19664
17792
17200
17456
16256
17392
17024
16704
17888
16752
17680
17872
17040
18304
17488
17744
18336
17232
18112
18272
17792
18800
17840
18528
18848
17920
19104
18496
18592
19232
18112
19200
18912
18528
19408
18320
19312
19328
18560
19616
18992
19008
20208
19104
20144
19424
18816
19888
18544
19552
19392
18672
25104
31936
28864
16752
20192
20016
19472
18896
20240
19168
20112
20496
19824
21296
20736
21312
22512
22112
24016
24000
24112
24480
21888
20880
19344
17632
18096
16640
17360
17440
16720
17856
17104
17136
18080
17008
18176
18064
17568
18960
18160
18032
19008
18464
17904
18880
18608
17696
18976
19056
18096
18944
19312
18432
18096
18752
19472
18640
18176
18816
18784
18336
18832
19104
20144
17952
20048
19696
18864
19232
19824
18608
19936
28016
32752
20320
19632
20240
20352
20096
19456
20352
19136
20176
20064
19984
21392
21008
21536
22864
22464
24336
24288
23264
23680
21104
18944
18128
17792
16336
17360
17088
16336
17456
17744
16432
18272
17968
17488
18688
17888
18256
18880
18032
18144
18832
18128
18016
18992
17664
18784
19168
18432
18784
19392
18832
18832
19504
18672
18720
18784
19344
18224
19808
19312
18960
18752
19840
19200
19152
20368
19392
28032
32752
16160
20256
20320
19008
19488
20160
19680
19312
20976
20288
19856
22272
21872
22656
23824
24736
23376
23312
21696
18864
18688
17952
16496
17568
17264
17504
18096
17344
18016
18272
17376
18352
18000
17760
18736
17760
18672
18864
18032
18992
18512
18400
19136
18064
19152
19008
18256
19296
18352
18768
19232
18272
19456
19168
18768
19680
18672
19168
19840
18720
19824
19648
19824
20592
18848
19584
19552
18672
19952
19344
18896
21648
28528
32752
18144
19808
20672
19200
19280
20032
18832
19920
20144
19648
21088
20576
21328
22320
21888
23664
24016
23856
24704
22352
21120
19536
17488
17680
16912
16656
17552
16368
17392
17536
16944
17904
17520
17632
18496
17440
18496
18288
17760
18704
17744
18368
18592
17808
18816
18368
18256
19040
17904
18800
19088
18288
19312
18528
18672
19312
18064
19376
18992
18752
19616
18480
19200
19760
18896
19744
19056
18816
19424
18496
19632
19232
18880
22720
30944
32752
15632
20272
20304
19472
19520
20160
19360
20416
20224
19920
21392
20224
21680
22192
22304
24048
23632
24512
24896
22400
21648
19472
18080
18112
16608
17232
17184
16464
17568
16816
16928
18224
17056
18192
17904
17584
18704
17648
18336
18624
17744
18736
17936
18160
18640
17856
18896
18688
18480
19200
18160
19088
19248
18480
19440
18528
19024
19568
18928
20048
19536
18992
19680
18544
19696
19552
18736
20064
25424
32752
26528
14400
21648
19376
19328
19888
18896
20032
20128
19856
21088
20560
21488
22192
21968
23728
23776
24176
24880
23216
22400
19968
18160
18160
16704
17008
17264
16384
17664
16704
17136
17968
16992
18128
17856
17264
18416
17312
17888
17888
16784
18128
17264
17632
18640
17600
18688
18608
18080
19184
18208
19024
19216
18448
19536
18640
19008
19456
18368
19840
19744
19776
20096
18960
19648
19712
19024
20064
18688
20304
28592
32752
22752
17920
20560
19920
18896
19936
19808
19488
20560
19712
20752
20928
20912
22144
22192
22912
24192
23520
24768
23536
21312
20432
18224
17328
17792
17024
16784
17600
17120
16288
18112
17536
17056
18176
18144
17472
18464
18656
17680
18448
18896
17792
18416
18848
17904
18480
19136
18384
18528
19248
19040
18432
19536
18976
18800
19456
19264
18544
19776
19792
19408
20064
19488
18928
19824
19648
18880
20064
26784
32752
20800
20160
19536
19440
19504
19024
19696
20416
19680
20432
21328
20992
21552
23152
23264
23632
24560
23552
20720
19696
18336
16672
17376
17136
16464
17440
17424
16608
17744
17600
16928
18000
17808
17296
18384
18192
17632
18528
18640
17776
18672
18960
17728
18336
18336
17632
18176
18928
18848
18192
18352
19184
18960
19136
18784
18096
19680
18368
19168
19680
19184
18160
19184
19536
18768
19520
20016
24672
32752
26272
16960
21504
19376
20128
20336
19504
20352
20496
20016
21296
20816
21552
22512
22032
23664
23840
24048
24048
22688
20736
19552
17984
16176
17264
17120
16480
17456
17296
16496
18400
17312
17520
17728
17520
18128
18816
17872
17664
19072
17728
18384
18912
17904
18656
19104
18384
18288
19376
18032
19488
19216
17824
19680
19168
18912
18352
19344
19568
18608
18272
20464
20432
19520
19792
19968
18912
19824
19632
19840
25888
32752
23808
17584
21504
18608
20496
19568
19040
20464
20000
20320
20800
21936
21424
22960
23088
23584
25168
24208
23616
22480
19408
19536
18208
16864
17776
16816
17200
17536
16608
17968
17664
17504
18432
17456
18400
18464
17744
18800
17904
18304
18528
17744
18720
18208
18256
18848
18016
19088
18528
18512
19376
18416
19056
19232
18432
19440
18656
18768
19376
18320
19488
19808
19552
20096
18736
19264
19696
18704
19920
18816
18864
29248
32752
20944
18704
20016
19856
19120
19392
19984
19152
20144
20272
20192
21328
20608
21888
22480
22192
23840
23936
23904
23680
20688
19920
18592
17088
17664
16480
17152
17440
16576
17664
17264
17120
17936
16832
18000
18192
17344
18576
18384
17808
18768
17808
18496
18736
17840
19008
18464
18272
19024
18048
18912
18976
18384
19472
18624
19088
19472
18320
19504
19216
18928
19680
18880
20048
20000
19024
19568
18960
19264
19808
18880
19600
20560
28144
32752
19392
19584
20752
18688
19968
19360
19200
20144
19376
20480
20704
20416
21920
21472
22416
23584
23088
24816
24160
22944
21744
18880
18400
17536
16544
17664
16848
17072
17632
16656
17840
17488
17296
18192
17248
18000
18192
17408
18448
17968
17904
18672
17792
18512
18848
17936
18992
18704
18400
19200
18272
19024
19040
18272
19296
18768
18896
19456
18688
19520
19312
18704
20064
19520
19904
20128
18768
19824
19328
19056
19792
18576
21552
30672
32752
17408
19808
20032
19584
19040
19952
20016
19456
20736
19872
20512
21488
20800
22432
22688
23040
24464
23792
24416
23232
20544
20016
17984
17632
17392
16672
17520
17184
16848
17728
16784
17728
17872
17328
18368
17792
17936
18640
17648
18704
18256
18048
18864
17936
18448
18720
17952
18944
18592
18448
19152
18672
18800
19456
18496
19408
19184
18672
19648
18656
19776
20160
19168
19936
19184
19104
19952
18976
19712
19760
24464
32752
26784
15696
21472
18784
19840
19552
19248
20352
19664
20336
20928
20416
21824
21744
22096
23568
23216
23840
24592
22560
19808
18784
18416
16816
17424
17424
16800
17632
17680
17008
18048
17808
17152
18080
18160
17472
18368
18592
17552
18384
18384
18128
18464
18944
18144
18432
18928
18576
18192
19200
18992
18432
19424
19360
18592
19376
19376
19072
18768
20192
19792
19344
19440
19488
18976
19984
19536
19136
25504
32752
25856
18112
20576
19392
20096
19152
19472
20352
19968
19984
21264
21152
21248
22848
23232
23248
24784
24288
22192
20992
19216
17376
17632
17376
17168
16912
17904
17424
17056
18080
17808
17456
18416
18208
17600
18576
18576
17760
18528
18768
17920
18544
18672
18720
18000
18368
18736
18880
19136
18048
18784
18720
18464
19088
18736
18464
18848
19344
19888
18752
19168
19312
18928
19568
19696
18640
20560
27984
32752
19600
19344
20384
20320
19200
20000
19888
19552
20640
20016
20224
20944
20464
21344
23200
22976
23504
24320
23360
20080
19664
17888
16816
16928
16768
16480
17744
17072
15952
18224
17280
17104
18128
17744
16720
18496
17744
17664
18464
17648
18128
18576
18288
18208
18672
18816
18432
18720
17904
18032
17968
19104
18256
18368
18784
18944
18528
20320
19664
19120
20656
19088
19136
19840
19568
18096
19936
23600
32752
25008
16640
19888
20048
19840
18880
20272
19664
20064
20704
20912
20768
21504
22224
22624
24272
24016
24064
24416
21520
20816
19232
17728
18112
17328
17152
17776
16864
17888
17872
17456
18512
17712
18128
18592
17680
18560
18592
18096
18928
17952
18560
18576
17936
18896
18192
18448
19072
18208
19264
18784
18672
19344
18464
19184
19232
18560
19680
18848
19168
19408
18672
19920
19920
19632
20320
17984
19856
19808
18960
19936
19216
21184
30528
32752
17840
20448
19376
19968
19184
19296
19936
19232
20256
20448
20128
21376
20912
21840
22800
22560
24240
24176
23856
23504
20624
19504
18256
17248
17776
17056
17056
17632
16688
17472
17536
17024
18080
17264
17808
18256
17472
18368
18176
17936
18656
17744
18432
18480
17936
18736
18320
18256
18944
18112
18992
18896
18496
19360
18528
19168
19472
18672
19696
19216
18944
19648
18768
20368
20512
19584
20000
18800
18928
19296
18032
19056
19168
23584
32656
29232
15952
21344
18912
19856
19472
19328
20304
19424
19952
21104
20304
21584
21760
22000
23328
22976
24368
24480
23536
22688
20176
19088
18496
17072
17744
17216
17088
17856
16816
17808
17744
17024
18096
17440
17648
18256
17424
18448
18240
17632
18512
17328
17472
17440
16160
16768
15648
15520
15664
14096
15840
15232
14752
15776
14512
15088
14720
13296
13840
12512
12496
13248
12112
13344
12704
11936
12224
10592
12096
10576
8720
9264
15056
18256
1824
16
3856
3440
4560
5184
5232
7248
8352
10176
13568
14000
16400
18096
19040
21104
21248
21264
21984
20256
19072
18608
17776
19328
20384
22000
25040
27424
32480
32752
32752
32752
32752
32752
32752
32752
32752
32752
32752
32752
32000
32208
31344
30448
30784
29152
29456
29040
27712
28576
27504
27328
27280
25728
27296
27088
26240
26048
24576
23920
22496
21120
21840
20688
27200
32752
25520
17328
22848
21264
23376
23472
25088
25280
24800
25712
24320
23792
23680
22528
23232
22576
22288
22816
21888
19792
18320
16464
14848
15680
15600
15152
16272
16480
15584
16240
16384
16080
16048
17152
16960
17056
17856
16816
15888
16288
14960
14816
15136
13024
11552
11392
9776
8752
9248
7680
6560
7040
5104
2384
3504
4080
4160
6560
7552
10176
22304
30688
13408
20208
20816
21984
25696
30368
30672
31504
31648
30512
29904
30896
30816
31424
32752
32752
32496
32000
29584
27104
26816
25648
24800
24992
23824
22816
23216
22816
21664
21264
20912
19552
19568
19152
16752
15376
14368
12928
12704
13152
13008
14096
15184
14880
16432
18688
20320
22304
24448
24336
22912
21808
21936
22320
28992
32752
17520
22192
19664
19552
20496
19520
19872
20368
20624
21696
22272
22576
22144
22880
22752
23440
23616
21680
19440
17904
16320
15936
16432
16288
16400
16304
15440
16272
15456
15648
15888
14752
15680
15616
14560
15584
16000
15360
15696
16192
15600
16064
16480
16144
16944
16704
16608
16976
17392
16128
18160
17856
17616
17680
17984
17440
17808
18640
17488
20176
29312
32448
14208
20320
18080
18880
19552
18544
19440
19104
18784
19024
20128
20080
20784
22368
22848
23088
23264
22352
19696
17920
17712
16960
16304
17712
16816
17104
17312
17296
17792
17680
17056
17696
17840
17792
17952
18720
17872
18960
18128
19008
19664
19280
19072
19552
18448
18848
18704
18432
19440
19648
19664
20384
19120
19744
19936
19360
20240
19600
19440
24960
32752
32576
16112
21104
20304
19456
19760
20112
19616
20560
20448
20528
21536
21280
23024
23200
23328
24640
24112
24592
23856
20928
19936
18448
17296
17632
16736
17200
17536
16912
17840
17728
17440
18176
17408
18016
17408
17840
18240
18304
18016
18752
18128
18512
18832
18128
19024
18656
18400
19040
18256
18960
18736
18144
19952
19264
18896
19952
19408
19840
19824
18320
19056
18528
18720
19280
18256
19552
26288
32752
25088
16832
20864
19552
18944
19776
19360
19600
20272
19568
20768
20768
20752
21856
21680
22992
23824
23728
24960
24368
22240
20688
18320
17984
17120
16400
16960
16272
17008
17152
16592
17744
17360
17568
18144
17456
18272
18080
17744
18496
17696
18416
18464
17984
18720
18128
18448
18752
18000
19024
18528
18528
19040
18176
18816
19120
18384
19280
18848
18720
19248
18368
19104
19632
19040
20400
18960
19488
19648
19104
19968
19584
19376
23200
32016
32752
15712
20704
20080
19488
19168
19824
19312
20112
20160
19856
21088
20624
21440
21968
22192
23392
23648
23888
24112
22048
20848
19120
17728
17632
16608
16944
17152
16592
17632
17216
17472
18112
17232
17984
17728
17568
18016
17776
18000
18880
18000
18608
18096
18000
18512
17760
18432
18176
18048
18768
18064
18672
18816
18144
19136
18592
19424
20160
19040
19584
19184
19008
19664
18880
19248
19536
25520
32752
26016
16096
21296
18784
19856
19536
19312
20080
19616
20000
20912
20192
21808
21616
22064
23360
23264
24464
24448
23216
22000
19632
18704
18064
16992
17664
17168
17152
17552
16848
17776
17536
17280
18080
17520
18000
18256
17600
18512
17968
18144
18608
17936
18736
18528
18144
18896
18080
18640
18816
18064
19264
18832
18464
19312
18432
19072
19040
19168
20176
19632
19536
19616
18976
19440
19792
19024
19552
26560
32752
20432
20400
20032
19248
19888
19520
19280
20192
20000
19968
21008
21040
21376
22752
22992
23664
24672
23872
21360
19968
18656
17200
16992
17296
16784
16976
17760
17472
17360
17968
17776
17568
18272
18048
17792
18480
18048
17632
18640
18384
18032
18784
18656
18304
18976
18800
18336
19120
19072
18336
18976
19072
18192
18864
19584
18976
19744
19648
19152
18896
19792
19296
18896
20464
28816
32752
17152
19664
18544
19200
19104
18656
19392
20032
19392
20304
21088
20752
21680
22704
22576
23728
24176
22832
21504
19904
17824
17440
17376
17008
16448
16720
17168
17008
16768
16896
16480
17632
16752
17200
17280
18240
17712
17536
18928
17584
18480
18800
17952
18896
18928
18272
19264
19248
19568
19840
19120
19936
20400
19904
20336
19536
19584
20064
19264
19936
19760
19568
28288
32752
15104
20688
20176
20064
19696
19728
20240
20496
20304
21280
21264
21376
23360
22928
24176
24128
24176
23568
21344
19088
18048
17952
16672
17472
17456
16512
18016
17664
17424
17760
17968
17920
18832
18304
16832
18832
17984
17792
18096
18560
18544
18032
18800
19520
18448
19248
18912
18560
18976
19472
18720
19424
20032
19056
19568
19504
18592
19296
19008
19088
24016
32192
30384
16976
20688
19232
19712
18784
19680
19568
19232
20272
20320
20864
21648
21344
22272
23568
23408
24688
24256
23280
21856
19216
18640
17648
16944
17424
16656
17344
17488
17104
18320
17616
17776
18352
17472
18304
17360
17488
18352
17952
18016
18432
17760
18528
18464
18160
18768
18208
18576
18912
18208
18896
18592
18288
18672
18128
19088
19680
18736
18784
19344
18816
19392
18928
18832
19136
21616
31040
30768
14672
20816
19216
17968
19184
18720
19808
20256
19936
20352
21040
20688
21840
22208
22592
23856
23424
23824
23008
20544
19600
17872
16976
17408
16544
16944
16832
16656
17248
16800
17040
17648
17056
17888
17728
17664
18224
17536
18224
18176
17808
18432
17760
18192
18112
17920
18384
18496
17952
18848
18048
18992
19408
19024
19728
18624
19104
19296
18768
19568
18944
18912
24560
32752
28800
14688
20656
19744
19440
19616
20064
19552
20496
20336
20576
21472
20976
22160
22608
22944
24272
24080
24704
24112
21680
20512
18592
17680
17904
16848
17552
17440
17136
17776
17184
17808
18000
17632
18400
17984
18208
18560
17824
18672
18384
18320
18800
18112
18544
18928
18208
18976
18416
18688
19056
18352
19008
18640
18432
19520
19040
19680
19296
18640
19392
18896
19088
19440
18208
20624
28592
32752
19952
18752
20192
19200
18736
19424
19184
19264
19984
19392
20432
20592
20560
21872
21744
22992
23680
23456
24432
22752
20704
19584
17664
17584
17232
16736
17408
16784
17312
17600
17072
17872
17536
17696
18112
17472
18240
18128
17984
18640
18064
19040
18816
18224
19088
18656
18608
19104
18384
19184
18896
18528
19488
18672
19200
19264
18752
19584
18944
19168
19584
18864
19680
19376
18928
19664
18848
19984
20016
19792
19920
19296
19392
19760
19136
19904
19376
19536
26176
32752
27136
17328
20720
19808
19120
19552
19904
19264
20128
19888
20208
20848
20432
21552
22064
22240
23504
23408
24192
23952
21616
20000
18992
17456
17232
17488
16848
17056
17648
16912
17344
17888
17328
17568
18160
17968
17824
18544
18368
17904
18608
18640
18048
18448
18880
18208
18560
18944
18432
18528
19104
19088
18400
18944
19216
18560
18448
19456
19104
18704
19472
19168
18640
19376
19712
19200
19152
19792
18960
19248
19648
19056
19264
20240
28512
32752
16832
19728
19776
19680
19168
19424
20016
19488
20128
20784
20656
21328
22320
22560
23136
24320
24208
23296
22256
19968
17888
17888
17456
16688
17136
17552
17040
17328
18160
17632
17984
18416
17808
18320
18720
17856
18304
18832
18112
18384
18576
18640
18176
18432
18720
19168
18752
18176
19216
18272
18160
17888
19392
18848
19840
19168
18928
19072
19728
18816
19296
19440
23520
32752
30768
16096
22048
19536
19728
20000
19424
20256
20240
20000
21152
20720
21472
22224
22128
22576
23680
24176
24208
23200
20160
18704
18496
16912
16800
17360
16864
17168
17600
17408
17392
18096
17120
18480
18352
17776
18400
18208
18272
18592
18672
17600
19072
18672
18272
18816
18240
18640
18768
18704
18688
19200
18208
18400
18400
18912
18768
18144
19232
19136
19056
19824
20256
18912
20304
19264
18528
20112
19472
18976
20176
27568
32752
21168
19312
19344
19808
19008
19360
19776
19856
19456
20544
20160
21024
21472
21360
22832
23488
23568
24864
23984
22400
20928
18576
18224
17472
17008
17440
16768
17408
17760
17040
18112
17616
17616
18096
17856
18048
18416
17728
18544
18112
18192
18640
17904
18608
18448
18064
18784
18240
18416
18944
18208
18896
18784
18304
19200
18544
18832
19056
18432
19152
18640
18608
19328
18368
19328
19680
18848
19616
18880
18928
19328
18736
19488
18848
19856
29728
32752
18048
19056
19616
19456
19120
19072
19664
19136
20032
19968
20128
21104
20944
21584
22592
22512
23888
23808
23824
23264
20704
19296
18304
16960
17248
16672
16560
16992
16384
17136
17152
16944
17728
17168
17680
17968
17936
18464
18192
18288
18800
18112
18656
18720
18368
19008
18608
18720
19248
18640
19296
19200
18832
19680
19008
19392
19680
19008
19536
19872
19840
20624
19424
19680
19760
19408
19984
19344
19008
23216
31568
32752
15904
20800
20240
19424
19552
19952
19248
20112
20352
20080
21120
20672
21664
22368
22496
23904
24048
24320
24352
22128
20784
18880
17744
17744
16832
17296
17328
16592
17664
16976
17552
17952
17360
18128
17808
17792
18320
17664
18288
18304
17872
18608
18032
18432
18672
18144
18800
18432
18272
19088
18336
18960
18960
18576
19152
18752
19024
19280
18624
19408
18880
19264
20176
19424
19936
19376
19104
19728
18912
19408
19264
20256
28976
32752
19904
19520
20048
19664
19344
19152
19920
19312
19952
20320
20064
21040
20800
21568
22368
22256
24016
23920
24032
23696
21024
19952
18528
17232
17536
16704
17072
17232
16752
17504
17360
17504
18000
17424
18208
17936
17888
18576
17856
18368
18640
18080
18784
18304
18512
18816
18112
18816
18640
18656
19104
18304
19136
18928
18672
19280
18464
19264
19216
18784
19376
18976
19584
20032
19200
19632
19136
19088
19568
18736
19456
19328
23360
32752
30256
15504
21008
19152
19664
19152
19248
19792
19200
20112
20224
20272
21280
21760
21760
23232
23824
23664
24112
22784
20096
18880
17760
17008
16736
17264
16576
16896
17488
16960
17136
17824
17360
17664
18112
17648
17856
18240
18032
17952
18528
18128
17984
18688
18592
18048
18704
18848
18256
18784
18992
18400
18880
19280
18640
19648
20000
19344
19376
19376
19136
19296
19680
18992
22976
32752
26496
16016
20992
19536
19248
19920
20064
19664
20320
20928
20720
21456
22432
22784
23312
24640
24688
23552
22128
19904
18080
17760
17504
16784
17472
17488
16992
17696
17968
17392
17728
18576
18016
17904
18512
18368
18016
18672
18448
18112
18160
18448
18384
17760
18464
18752
18800
18304
17280
18720
18656
17616
19328
18688
20128
19040
20080
18928
18912
19760
18688
19424
19296
19680
28384
32752
22512
19440
20432
19600
19744
19216
19968
19632
19984
20416
20016
20960
21072
20400
21744
22624
23056
24480
23472
21680
20784
18304
17120
17616
16464
16976
17264
16864
16704
17488
16736
17696
17808
17600
17936
17840
18288
17984
18560
17312
18480
18688
18544
18256
18544
18720
18352
19328
18800
18672
18496
19040
18144
19008
19088
18832
18848
18864
19632
19472
19328
20864
19984
19008
20128
19280
19600
19440
19216
19312
26240
32752
21712
19888
19648
19696
19712
19440
19264
20368
19616
20576
20784
20336
22384
22336
22848
23904
24160
24432
24256
22416
20832
19344
18096
17984
17280
17552
17792
17152
17968
17600
17712
18112
17472
18144
18096
17824
18272
17792
18224
18496
17712
18688
18160
18160
18528
16096
16640
16512
17200
17408
17344
17536
17264
17568
17968
18080
18448
19424
19712
19168
18384
20208
20256
19888
20240
19376
20976
28208
32752
21824
17120
21264
20048
19552
20192
19856
20048
20480
20256
21168
21040
21584
22448
22320
23520
24240
24192
24944
23696
21952
20496
18480
18160
17680
17120
17664
16992
17584
17760
17504
18112
18032
18128
18496
17952
18592
18368
18144
18736
17920
18656
18560
18224
18880
18288
18592
18896
18224
19072
18720
18672
19008
18608
19024
19152
18752
19440
18864
19104
19760
19520
20080
19424
19056
19392
18976
19536
19328
18800
22096
30032
32752
17136
20096
20128
19216
19168
19632
19152
19824
19968
19936
20848
20400
21248
21936
21888
23408
23696
24080
24464
22560
20960
19440
17856
17728
16800
16864
17216
16416
17280
16912
16976
17664
17088
17952
18000
17632
18288
17712
18256
18304
17824
18608
18080
18464
18704
18128
18832
18624
18400
19056
18256
18976
18944
18560
19232
18816
18912
19296
18752
19360
19056
19024
20288
19472
19664
19264
18960
19664
19232
19328
19360
20576
29216
32752
18672
19616
19936
19424
19488
19024
19872
19344
19984
20272
19968
20976
21056
21440
22528
22496
23728
24192
23776
23680
21152
19616
18624
17280
17456
17024
16592
16944
16352
17136
17376
17056
17744
17344
17520
17952
17472
18160
17984
17856
18512
17808
18416
18464
18128
18688
18160
18464
18576
18256
18896
18576
18576
19056
18384
19072
18896
18640
19200
18640
18992
19216
19072
20032
19504
19200
19264
18656
19360
18848
19040
19280
22480
31888
32144
14704
21040
19440
19072
19600
18976
19696
19744
19600
20480
20208
21072
21664
21808
22624
23776
23792
24096
23744
21136
19472
18576
17088
16944
17216
16720
16800
17456
17200
17120
17840
17696
17440
18000
18384
17616
18272
18432
17872
18464
18656
17744
18608
18800
18272
18752
18896
18416
19008
19168
18608
19184
19200
19216
19888
20208
18992
19344
19488
18976
19408
19376
20352
30944
32752
14624
21232
19872
19472
19472
20144
19792
20096
20784
21136
20992
22096
22640
22896
24224
24608
24128
23552
21296
19072
18592
17616
16928
17328
17488
16832
17488
17840
17408
17568
18000
17584
17824
18272
17808
18064
18688
18000
18320
18752
18192
18448
18912
18384
19104
19184
19200
19072
18624
18592
18176
18752
18992
19984
19856
18272
19360
19296
19024
18496
18976
26736
32752
19536
19056
19456
19312
19088
18976
19760
19360
19904
20368
20720
21312
21696
21856
23200
23360
24368
24976
23648
23312
20848
19168
17536
17184
16608
17104
16864
16320
17040
17536
16896
17376
17488
17280
17680
17584
17024
18496
17632
17760
18768
17808
18960
18384
18384
18496
19184
18368
19136
18928
18208
19792
18976
18768
18928
19120
18928
19632
19824
18944
19504
18656
18528
18800
19024
18736
26592
32752
18128
19888
20176
19120
19104
19584
20256
19296
19888
20704
19904
21280
22000
21824
22880
23360
24304
24160
22528
19744
19648
17760
17088
17440
16640
17168
17168
16912
17264
17888
17712
18240
17888
18080
18496
17792
18688
18512
18128
18864
18192
18704
18784
18320
18960
18512
18528
19024
18400
19024
18896
18720
19184
18656
19216
19104
18784
19872
19584
19648
19488
18848
19520
19248
19120
19648
18960
23040
32752
30784
14832
20720
19568
19648
19200
19920
19712
19792
20576
19424
21488
21424
21072
22736
22896
23424
24528
23872
24320
22384
20304
19312
17664
17568
17392
16832
17488
17024
17200
17600
17152
17984
17712
17712
18256
17680
18304
18128
17904
18720
18096
18272
18384
17920
18416
18368
18128
18720
18144
18960
18848
18448
19056
18640
18816
19200
18608
19280
18768
19088
20032
19456
19728
19584
18832
19472
19200
19328
19456
18928
24176
32288
32192
16336
20672
19584
19392
19088
19600
19024
19728
20128
19824
20864
20832
21184
22240
22160
23504
24096
23776
24160
22000
20384
18944
17408
17488
16800
16800
17120
16832
17392
17376
17264
17936
17360
17872
17936
17680
18336
17856
18176
18480
17904
18640
18176
18368
18768
18224
18672
18592
18544
19120
18512
18864
19104
18560
19296
18976
18928
19360
18768
19328
19248
18960
19648
19536
19936
19856
19040
19152
19232
19360
19712
18896
19888
26032
32752
26992
16496
21200
19632
19248
19712
19328
19536
20112
19616
20496
20672
20720
21616
21824
22736
23792
23568
24512
23696
22000
20576
18544
18112
17456
17008
17376
16800
17312
17312
17168
17776
17408
17504
17904
17648
18208
18160
17968
18528
17808
18496
18400
18240
18736
18256
18560
18752
18240
18928
18688
18704
19104
18432
18784
19104
18704
19264
18896
18992
19376
18784
19408
19024
19344
20112
19616
19744
19376
19040
19664
18992
19344
19216
19776
28800
32752
20368
18656
20128
19680
19440
19264
19776
19392
20096
20144
20096
21008
21072
21520
22416
22320
23776
23872
23568
23792
21312
19968
18576
17504
17376
17232
16752
17168
17440
16928
17488
17760
17360
17872
18192
17648
17888
18240
18048
18112
18432
17920
17920
18480
18288
18160
18656
18880
18400
19104
18912
18624
19104
19200
18720
18992
19584
19568
19840
20000
19264
19008
19712
19344
19184
19776
25504
32752
22096
19056
20016
19808
19824
19504
20032
20368
19888
20976
21200
21136
22224
22672
23104
24304
24384
23840
22816
20512
18528
18112
17632
16800
17200
17632
16992
17440
17776
17552
17584
18112
17824
17856
18432
18016
17968
18560
18240
18288
18688
18336
18368
18688
18592
18528
18848
18720
18608
19152
18720
18816
18768
18976
19056
18480
19184
19696
20016
18224
18688
19296
18592
18544
19360
29952
32752
15568
21024
19024
19312
19280
19184
19456
19792
19696
20448
21232
21072
22080
21952
23136
23952
23888
24784
23616
21856
20400
18528
18224
17632
16000
16736
16976
16736
17472
17408
16528
18016
17344
18080
17840
17904
18080
17584
18704
18048
18224
18096
18368
18656
19008
18320
18160
19472
18416
18800
19472
18496
19120
19744
18784
18960
19600
18544
19728
19744
18896
19632
19248
18880
18576
19168
19312
20144
28848
32752
19168
19872
20672
19408
18832
20368
19456
19520
20704
19904
20912
21216
21392
21632
23440
23232
24432
24304
21984
21072
19520
18000
17648
17328
16976
17488
17408
17200
17984
17936
18000
18208
17952
18560
18304
18192
18608
18096
18416
18800
18400
18784
18176
18304
18752
18176
18816
18592
18464
19312
18512
19088
18976
18608
19216
18800
18880
19456
18560
19568
19728
19568
19936
18944
19376
19360
18960
19552
18848
20128
28400
32752
20576
17584
20288
19552
19120
19104
19440
19648
20336
20208
20464
21168
21008
21888
22592
22752
23984
23888
24080
23264
20848
19664
18336
17344
17488
16816
17088
17056
16944
17552
17392
17408
18032
17520
17856
18400
17792
18528
18112
18192
18624
17936
18416
18512
18144
18784
18448
18240
18896
18416
18736
19152
18640
19264
18832
19008
19312
18720
19408
19728
19808
19984
19088
19360
19408
19008
19536
18960
19184
25440
32752
29072
16080
20912
19680
18960
19488
19520
19328
20016
19936
20208
20864
20464
21616
22256
22464
23680
23680
24000
23968
21520
20320
18736
17584
17744
16848
17232
17376
16912
17504
17472
17552
18048
17536
18144
17984
17824
18240
17840
18416
18528
18064
18624
18368
18320
18736
18368
18736
18736
18480
18992
18624
18800
19120
18576
19152
18976
18864
19232
18624
19280
19264
18800
19504
19088
19104
20112
19712
20128
19616
18992
19824
19152
19552
19712
19008
23408
31408
32752
16272
20832
19824
19536
19136
19808
19440
19904
20144
20032
20800
20752
21136
21952
21872
23136
23600
23856
24160
22544
20816
19296
18016
17824
17280
17136
17440
16976
17520
17552
17232
17856
17584
17808
18192
17776
18368
18016
18160
18592
17968
18272
18656
18320
18496
18112
18640
18496
18272
18800
18448
18880
18960
18640
19184
18944
18880
19392
18640
19328
19184
18960
19200
19056
19248
19504
18880
19536
19568
19888
20176
19344
19520
19376
19168
19648
19056
19104
20736
28960
32752
18448
19392
20448
19104
19632
19520
19456
19936
19648
20112
20320
20416
21296
21408
22032
22928
23440
23936
24064
22576
20736
19200
17984
17168
17376
16800
16896
17344
17040
17424
17760
17408
17696
18144
17760
17840
18432
18064
18000
18416
18048
17904
18736
18464
18160
18752
18736
18096
19024
18944
18528
19008
19168
18752
19008
19328
18672
19248
19312
18976
19696
20192
19664
19600
19472
19264
19552
19808
19104
20720
30416
32752
15888
21248
19472
19744
20000
19584
19920
20272
20560
20624
21456
21664
22000
23312
23760
24000
24624
23664
21232
19824
18496
17280
17376
17536
16800
17344
17728
17488
17600
18144
17808
18048
18400
17888
18192
18592
18064
18160
18640
18160
18000
17952
18592
18368
18128
18576
18256
18512
18272
17648
19088
18768
17936
18048
19200
19008
19104
20128
19552
19248
19376
19200
19408
19616
19584
19952
26320
32752
27632
16848
21088
19824
19312
19776
19696
19600
20272
19984
20000
20176
20624
21552
22048
23136
23392
24464
23664
21904
20128
18528
16800
17552
16864
16720
17536
16848
16992
17936
17360
17120
18112
17520
18224
18144
17184
18624
18336
18144
18880
18704
18240
18992
18864
18064
18992
18512
18384
18368
18592
19056
18304
18208
19440
19040
19600
19456
19520
19248
20560
19824
19504
19696
18768
19904
19600
18416
21792
30640
28336
16848
21536
19632
19344
19168
20192
19536
20320
20160
20480
21312
20992
21984
22656
23168
24704
24352
24336
23200
20960
19696
18512
17584
17728
17120
17280
17504
17056
17680
17408
17520
17920
17488
18048
18144
17872
18416
17824
18176
18080
18192
18560
18320
18272
18640
17952
18672
18672
18384
18816
18544
18752
18960
18416
19136
18800
18800
19184
18464
19136
19824
19408
19712
18800
18384
19888
18960
19408
19152
19600
27200
32752
22528
16624
20336
19584
19360
19264
19696
19424
19856
20432
20288
21136
21120
21696
22592
22544
23936
24048
23984
23712
21424
20016
18512
17232
17520
16672
16896
17008
16480
17328
17168
17152
17888
17360
17872
18016
17728
18288
17904
18176
18384
18048
18512
18272
18400
18736
17936
18896
18560
18368
19184
18720
19024
19280
18816
19360
19120
19040
19392
19456
20144
19968
19360
19568
19248
19552
19728
19264
19536
22240
31904
32752
15616
21008
19824
19216
19696
19248
19760
19904
19728
20448
20480
20880
21552
21616
22928
23184
23856
24640
23696
22912
20880
18912
18496
17424
17168
17424
16624
17584
17280
17248
17792
17296
17808
18000
17520
18240
17856
18048
18048
17808
18384
18304
18128
18672
18336
18784
18688
18384
18928
18560
18752
18880
18528
19152
18928
18912
19280
18816
19200
18928
19056
19440
18816
19216
19888
19648
20112
19504
19216
19648
19104
19568
19488
19008
22432
30224
32752
17344
20224
20032
19312
19328
19696
19344
19808
20096
19904
20736
20432
21264
21888
22128
23360
23536
24208
24320
22816
21392
19568
18144
17728
17008
17216
17376
16976
17536
17296
17472
17872
17296
18240
18096
17968
18448
18000
18384
18432
17984
18640
18160
18320
18736
18288
18816
18560
18608
18896
18432
18896
18784
18592
19152
18720
19024
18928
18800
19312
19008
19056
19360
18768
19040
19344
18896
19664
19584
19872
19744
18928
19408
19104
19104
19376
18864
19712
26416
32752
25376
16464
20752
19488
18928
19888
19712
19504
20208
20368
20096
21072
21568
21696
22880
23600
23696
24176
23568
20864
19216
18320
17040
16560
17184
16816
16752
17200
17552
17088
17504
17968
17360
17760
18208
17808
17920
18368
17952
17936
18320
18192
18176
18752
18384
18368
18816
18608
18448
19008
18864
18608
19040
19248
18784
19088
19344
19136
20048
20208
19200
19296
19600
19616
19328
19696
20144
28224
32752
18544
19824
20576
19632
19616
20112
19872
19968
20704
20672
20832
21936
22368
22624
23968
24496
24240
24368
22368
19872
18800
18016
17168
17264
17520
17184
17296
17504
17280
17536
17952
17888
17936
17664
18016
17936
18480
17392
18080
18032
17568
18016
18208
18464
17072
18256
18816
18496
18448
19312
18544
18928
19344
18736
19376
19280
19536
20400
20224
20048
20064
19136
19904
19680
19440
19504
19680
25024
32752
29248
16160
20656
18592
19072
19536
18864
19648
20240
19296
20800
20880
20960
21344
22608
22752
24704
24240
23024
22112
19488
18512
17984
17216
16528
17600
17296
17056
17776
17072
18112
17984
17440
18272
17808
18448
18224
18544
17152
18000
17840
18736
18032
18224
18192
18640
18320
19664
18912
18672
19520
19216
19088
19296
19584
18784
19584
19040
19408
20176
19696
19760
19568
19536
18576
19680
18992
19472
23376
32752
28736
16592
21472
19184
19984
19152
19408
20144
19616
20880
20800
20832
21632
21584
22304
23248
23472
24432
24528
23456
22080
19616
18624
17872
17136
17376
17040
16960
17424
16992
17488
17424
17360
17824
17584
17824
18016
17584
18224
17968
17968
18416
17920
18192
18304
17984
18480
18448
18208
18656
18288
18608
18816
18416
18480
18592
18928
19216
18896
18896
19392
19424
19712
19664
18704
19360
18912
19104
19344
18832
20496
28784
32752
19408
17440
20512
19536
19264
19680
19424
19872
20240
20000
20736
21152
21232
22272
22352
23392
23936
24128
24704
23456
21920
20192
18480
18096
17152
17136
17264
16864
17072
17280
16928
17840
17424
17744
18000
18000
18320
18096
18192
18464
18048
18416
18512
18320
18688
18368
18720
18800
18496
18848
18704
18688
19344
18640
19200
19056
18880
19728
19552
19904
19600
18992
19520
19104
19248
19440
18752
23184
31424
32752
16240
20448
19792
19408
19024
19712
19408
19744
20208
19920
20720
20832
21296
22032
22320
23472
24000
24128
24432
22624
20976
19312
17632
17808
17072
17024
17328
16832
17488
17232
17440
17808
17472
17792
18080
17648
18256
17856
18064
18416
17952
18576
18256
18304
18672
18208
18528
18736
18384
18912
18512
18880
18976
18592
19072
18816
18864
19504
19520
19968
19632
19008
19424
18720
19456
19440
18736
20352
27712
32752
21120
17968
20576
19264
19168
19536
19248
19744
19968
19744
20608
20480
21008
21664
22032
23088
23552
23936
24416
23200
21696
19920
18240
17888
17072
17072
17104
16976
17424
17312
17296
17744
17280
17840
17568
17872
18176
17888
18080
18352
17936
18528
18240
18256
18624
18144
18576
18576
18320
18720
18304
18048
18992
18368
18416
19088
18544
19120
18768
18592
19280
19328
19856
19376
18896
19232
18880
19248
19296
18896
19936
26592
32752
23008
16720
20496
19216
19312
19472
19104
19792
19824
19760
20528
20368
21376
22000
22160
23168
24208
24112
24000
22720
20320
18416
17632
17488
16752
17056
17184
16912
17296
17680
17312
17648
17936
17648
18000
18304
17952
18032
18304
18096
17648
18176
18576
18176
18768
18768
18432
18944
18944
18608
19120
19056
18720
19088
19216
18816
19536
20192
19552
19312
19552
19056
19568
19568
18912
20784
30304
32752
15056
21472
19664
19664
20128
19808
20000
20656
20432
20864
21712
21568
22352
23536
24336
24368
24544
23440
20736
19360
18368
17296
17344
17520
17040
17456
17584
17392
17664
17984
17872
17888
18400
18128
18064
18576
18352
18256
18160
18368
18240
17920
18080
18896
18000
18368
18496
17856
18464
18224
18176
18608
18432
19296
19248
19504
19776
19024
19280
19296
19184
19888
19472
19312
24688
32400
31552
16432
20896
19856
19280
19408
19680
19424
20048
20032
20128
20144
20496
20608
21952
22432
23376
24112
23520
22352
20112
19344
17488
17520
17232
16320
17360
17264
17024
16928
17776
17056
18288
18000
17472
18432
17824
17984
18608
18528
17664
18912
18544
18528
18608
18112
18912
18864
17824
18608
18512
18672
18960
18448
18512
18736
19856
19920
19056
20416
20432
19488
20416
19568
19504
19312
19664
19472
20704
28192
32752
20048
20528
19856
19920
19664
19200
20224
19872
20192
20608
20432
21328
21760
21968
23136
24368
24320
24992
23824
22384
20656
18896
18400
17120
17328
17328
16912
17232
17440
17152
17744
17344
17616
17936
17600
18000
17904
18000
18224
17840
18080
18128
17872
18224
18080
18272
18368
18240
18624
18400
18464
18656
18208
18944
18736
18688
18976
18560
18784
18992
18528
19264
18832
19456
19344
19056
19824
19040
19200
19552
19104
19296
19408
21296
31456
32752
15232
20080
19600
19600
19568
19312
19920
19712
20000
20480
20560
21360
21440
21952
22880
23056
24176
24480
24192
23744
21344
19888
18624
17488
17408
17008
16896
17312
16864
17280
17664
17424
17872
17616
17808
18192
17792
18384
18032
18112
18384
18000
18448
18288
18288
18704
18208
18704
18704
18352
19040
18720
18928
19200
18752
19216
19008
18992
19280
18672
19792
19968
19632
19728
19040
19344
19488
19008
19584
19184
22528
31920
32752
15760
20672
19216
19360
18928
19168
19536
19216
19936
19952
20176
20720
21008
21888
22480
22976
24000
23872
24208
23040
20608
19456
18048
17232
17296
16736
17056
17104
16880
17424
17088
17456
17744
17408
17936
17808
17792
18224
17536
18448
18256
18080
18560
18080
18448
18608
18240
18784
18576
18672
18896
18512
19024
18912
18784
19184
18768
19088
19088
18976
19344
18960
19376
20144
19664
19856
19376
19136
19616
19168
19520
19248
19840
27536
32752
22816
18304
20400
19504
19232
19280
19632
19440
19984
20128
20080
20832
20832
21472
22256
22480
23696
23920
24176
23888
21856
20512
18912
17776
17424
17040
17120
17312
16976
17600
17280
17408
17792
17392
17936
17904
17792
18240
17808
18208
18256
17744
18288
18080
18176
18224
18080
18528
18656
18352
18800
18448
18752
18928
18640
19136
18816
19008
19168
18640
19344
19136
19024
19424
19440
19872
19920
19328
19472
19184
19296
19520
19040
19488
23008
32000
32480
14928
20944
19728
19232
19600
19200
19568
20176
19824
20336
21104
21216
21712
22608
23168
23648
24512
24000
22272
20592
18880
17488
17408
17056
16608
16976
17152
16912
17440
17616
17312
17680
17856
17504
17904
18128
18352
18160
18576
18240
18256
18784
18496
18416
18880
18800
18352
19104
18992
18656
19184
19248
18848
19232
19168
19328
20000
20048
19328
19392
19568
19088
19216
19440
20416
30848
32752
14928
20976
19616
19408
19424
19792
19600
20064
20496
20384
20816
21584
21776
22672
23680
23824
24240
23728
21744
19328
18528
17616
16976
17280
17152
16816
17536
17360
17376
17840
17840
17632
18080
18128
17888
17776
17744
17840
18240
17680
18112
18560
18320
18000
18368
18928
18416
17872
18752
18848
19024
18640
19280
18832
19648
19728
19792
19152
19472
19824
19456
19664
19664
23424
32752
30480
16608
21296
19664
19360
19104
19552
19280
19680
20448
20608
21328
21968
22432
23776
23824
23680
22736
20400
18896
17696
17312
16816
17040
16592
17744
17824
17312
17888
17664
17760
17648
18768
18192
18016
18448
18352
17776
18432
18416
18384
18112
18384
18896
18784
18656
18960
18976
18800
19024
19328
19552
18848
18960
20384
19600
20000
19456
18752
20032
19552
18816
20960
29184
32752
17952
20256
20080
19104
19424
19600
19456
20240
19984
20384
21040
20944
22224
22384
22848
23920
23888
24496
24144
22240
21120
19200
18256
17904
17104
17472
17232
17008
17664
17152
17616
17760
17616
17984
17616
18016
18256
17952
18336
18224
18144
17872
17728
17936
18320
18032
18400
18192
18288
18624
18144
18688
18528
18480
18384
18624
18736
18864
18992
19680
19264
19040
18928
17776
19600
19152
18832
19264
23328
32752
29392
13552
20992
19296
19152
19376
19424
19680
20112
20000
20720
20704
21248
21824
21936
23072
23552
23920
24528
23840
22672
20912
18960
18384
17488
17056
17408
16944
17424
17472
17344
17888
17568
17984
18048
17744
18368
17984
18128
18320
17984
18448
18320
18256
18672
18256
18448
18816
18384
18960
18576
18832
18992
18656
19040
18880
18800
19232
18880
19872
19936
19552
19632
18976
19312
19488
19056
19408
19280
25680
32752
27648
16384
21120
19088
19520
19056
19408
19712
19536
20128
20112
20544
21120
21072
22112
22576
22480
24368
23968
23872
22368
20064
19152
17872
17312
17344
16832
17312
17248
17168
17632
17344
17664
17888
17632
18176
17664
18032
18256
17904
18384
18144
18112
18432
18128
18464
18464
18304
18688
18272
18256
18672
18256
18688
18304
18112
18192
17424
17536
17360
17648
18208
17968
17856
17920
17808
18320
18416
18464
18544
21392
30368
32752
15904
20720
19696
19664
19680
19744
20288
20224
20528
21072
20896
21392
21568
22144
23312
23264
24064
24288
23696
22944
20480
18912
17840
16640
16592
16112
16064
16432
16000
16400
16464
16320
16912
16624
16880
17392
17072
17904
17536
17632
17856
17248
17424
17120
16512
16416
15904
15984
15840
15360
16240
16160
16576
17424
17536
18608
19520
19728
20320
20192
20448
20304
19472
19568
19360
19376
19840
19520
19760
23920
32752
31072
14960
21648
20112
19952
20400
20720
20976
21680
21264
22144
22336
22560
23536
23936
24688
25744
25808
27040
26656
25248
23744
21760
20912
20128
19136
19664
19024
19072
18896
18848
19552
19632
19696
20128
19744
19920
20192
19728
20192
19824
20048
20096
20032
20272
19888
19664
19728
20048
20256
20192
20592
20080
19920
20032
20608
19872
20032
19184
19088
19392
18688
18656
18576
20928
31472
32752
14432
19936
19040
19408
19088
19264
19680
19424
19888
20352
20320
21264
21216
21824
22688
22816
23872
23952
23328
22304
19680
18448
17408
16624
16736
16128
16608
16768
16416
17120
16976
17136
17632
16944
17744
18096
17648
17904
18112
17792
17984
18352
18160
18128
18672
18400
18304
18704
18176
18048
18816
19120
19120
18960
19104
18944
18736
18672
19152
19776
27232
32752
16800
20688
18688
20000
18816
18928
19168
18896
18800
19312
19072
19472
20448
20464
21840
22352
22912
22992
21136
19152
17888
16096
16144
16576
16336
17280
17072
16928
16160
16848
19088
21760
20256
19072
18352
18768
17696
17984
17920
17408
17504
17360
16992
17856
16544
16736
17648
16800
18288
17920
18128
18064
18784
18144
18736
19088
17616
21184
30528
32752
15440
20848
19216
19168
18912
17888
19568
19216
19552
20064
20640
20880
21968
23184
24784
24272
24352
22336
20672
19264
18160
17216
16608
17776
16928
17312
17648
17296
17952
17216
17904
17952
18128
18096
18352
18368
18944
18512
18960
18224
18496
18864
18432
19440
19136
18928
19616
19792
20240
20640
20048
19760
19616
19440
19872
19488
19568
19632
23120
32752
30064
13792
21088
19040
19488
19232
19168
19744
19472
19824
20304
20144
20944
21328
21680
22784
23024
24016
24176
23488
22448
19920
18560
17888
16848
16928
16752
16640
16928
16736
17168
17296
16432
18304
17728
17760
18320
17920
18336
18368
18272
18704
18272
18672
18816
18848
19296
19680
19552
19616
19760
20080
19776
18976
19184
18672
18800
19280
18864
19568
25504
32752
26656
14912
21088
19488
19440
19648
19568
19968
20256
20176
20880
21424
21632
22192
22496
23376
24000
24288
24624
23520
21648
19632
18112
17616
16832
16544
16768
16448
16800
16784
16832
17184
16864
17072
17392
17216
17984
17744
17696
18160
17792
17984
17840
17904
18368
18032
18464
18544
18640
19536
19856
19088
18624
17728
17552
17488
17312
18224
17712
21536
31232
32752
14528
19504
18448
18512
18128
18928
18864
19152
19632
19760
20400
20880
21264
22256
22880
23648
24576
24592
24512
22784
20688
19120
18240
17632
17472
17008
17728
17328
17632
17984
17664
17888
18192
17952
18368
17920
18432
18432
18208
18560
18288
18464
18896
18512
18880
18864
18640
18752
18480
19008
19488
19408
19984
19088
19408
19408
19040
19600
19296
19120
21232
29168
32752
18336
19872
20224
19264
19440
19600
19440
20032
19968
20048
20704
20736
21424
21984
22576
23472
23888
24560
24304
22688
21264
19184
18016
17504
16912
17056
16928
16976
17360
17024
17216
17520
16944
17568
17488
17440
17792
17568
17872
17936
17744
18400
18096
17904
18480
18160
18496
18416
18544
18784
18528
19040
19600
19600
19408
18912
18960
19056
18784
19040
17680
19840
29664
32752
15968
19488
18960
18752
18336
18448
19344
19520
19328
19840
20400
20912
21408
21440
22592
23968
23920
23952
23328
21648
20128
18368
17664
17184
17856
17312
17552
17760
17568
17584
17952
17984
17648
18416
17616
17920
18352
18368
17952
18032
17472
17696
18240
17888
17824
18112
18384
17984
17904
18528
17984
18240
18640
18336
29184
30992
13504
21040
19168
18432
19712
18784
20128
20128
19584
20480
21232
21536
23072
22928
23984
23952
24544
22528
21040
19104
17664
17648
17552
16352
17552
16816
18240
17536
16912
17008
18160
17360
18288
18384
17440
18512
18480
18592
18480
18240
18768
18336
18768
19568
19280
19088
18512
19392
19600
19504
18256
19952
25616
32752
25920
16496
20816
20144
19728
19424
20256
19856
20496
20112
21488
20848
21792
22416
24064
24064
23552
23840
20672
18736
18656
17392
16688
17600
16336
17840
17536
17872
17728
17568
17520
17488
17984
18256
18672
18224
17968
18720
17824
18320
17792
18448
19264
19120
19664
18672
19040
18496
18848
18592
18816
24528
32752
20720
20096
19024
19888
14288
32752
32752
24144
0
0
28512
4464
26720
18128
28272
0
11456
32752
32752
29120
11344
0
16928
0
13872
32752
26048
2976
15552
32752
28304
4176
29200
15568
5680
32752
32752
32752
23456
0
10976
32752
25824
32752
32752
32752
20960
32752
32752
32224
18992
26240
30864
32752
25376
20000
18048
28928
7376
6848
0
0
16512
24352
32752
29264
21296
21568
15088
0
22304
32256
29424
12112
9600
32752
32752
32752
23760
1472
19680
32752
23344
0
16544
25600
32752
32752
14256
29856
2800
32752
28624
0
28112
28816
192
11184
32752
22784
1104
32752
24128
2480
17328
32752
25776
0
0
24192
32752
16704
0
19808
32320
13744
10240
32752
29184
29968
4656
16192
5872
0
848
0
12064
32752
22896
22032
18288
20880
0
7120
32752
32752
32752
32752
32752
32752
27936
0
16720
16
32752
29104
25680
0
7552
32688
31040
2080
17136
32752
23792
0
25216
29776
1024
19040
32752
13808
9024
32752
20096
368
25760
29312
0
26784
26592
0
8736
32752
28704
192
0
2848
0
17840
31408
32752
29904
21264
0
26816
64
10368
8016
0
20976
32752
10672
32752
28752
26592
0
1104
3232
30176
28912
0
8544
32752
19184
11840
0
0
0
2320
2944
1152
0
21696
32752
28800
32752
29072
29024
7984
15056
32752
25760
0
17376
14192
32752
29648
1408
4960
32752
32752
32752
20640
3600
32752
32752
0
3120
30128
32752
28160
0
13344
32752
28480
0
0
0
7200
5040
32752
32752
28800
928
16448
24592
64
29568
20960
0
26928
30960
1712
20768
32752
15376
11584
32752
25568
0
29168
31344
29600
1968
15424
32752
30368
22016
0
24464
32752
26656
0
2672
32752
29120
32752
30528
832
18704
32320
4256
13632
32752
23520
0
32752
29152
0
19952
32752
28432
0
20352
32752
16864
3456
32752
27968
0
15024
22288
26208
32752
29088
0
21280
32752
31504
22704
0
0
23024
29792
992
14864
24608
29200
0
21376
32752
14944
3760
27136
32720
23840
11936
6016
32752
24480
0
0
20736
0
17216
32752
32752
25568
0
26688
29296
0
27136
32752
21520
5072
19136
32752
30560
4320
14752
32752
30048
32752
24752
0
30320
31936
27776
496
10784
32752
25712
0
24816
32752
20272
28128
31440
7104
0
12240
20304
32752
29952
29024
9120
0
7600
20432
32752
28688
25184
20992
0
23648
32752
15856
16
0
18896
32656
5168
13504
32752
24208
8512
16576
32752
10176
12384
23584
31920
3200
18016
32752
20608
4288
32752
32752
12688
0
20496
19696
32752
20800
3408
32752
31184
0
3552
32752
32752
13760
320
0
0
464
27520
31536
29040
31632
32400
29328
32752
32752
28656
31840
13264
32752
0
18944
13936
0
22288
30560
2912
16272
32752
13664
8768
32752
32752
32752
28480
0
24448
29888
1200
16704
32752
8976
12704
24224
32128
25648
0
31600
28512
0
29664
29568
7824
14944
32752
16592
7248
32752
24064
1200
32752
27504
0
31344
29024
0
24160
30736
5984
14208
32752
13232
29712
12512
8112
18240
32752
19072
32752
28752
0
20144
32752
24048
0
12384
2640
32752
29776
0
23632
32752
22768
0
29728
30640
4096
17136
32752
27856
28992
24688
32752
0
12688
10048
32752
22128
4800
32752
26336
0
4544
15616
32752
6368
19968
32752
24480
160
32752
25168
0
31520
29008
0
24912
30336
23568
4288
15120
32752
24480
0
32672
28624
15392
0
0
0
22352
32752
20640
1264
32752
0
0
544
28672
80
22192
32752
22128
0
25440
32752
23664
0
32752
26496
0
18192
27184
32752
25696
0
20032
17648
32752
32752
32752
25536
560
5424
11120
4176
0
9584
32752
29840
4960
6912
32752
20608
8016
32752
24080
0
32752
22432
8080
32752
6496
18080
30880
4080
21872
28960
0
32752
21840
9536
32752
3584
21920
29088
0
32752
21488
11488
32752
688
29408
28208
0
32752
16304
15392
32096
0
26640
28864
0
32752
18032
12864
32752
0
30064
26976
2160
32752
9072
17712
30288
0
32752
28704
5232
32752
5952
21744
32752
4720
22912
29088
16
32752
20592
12640
31648
272
25888
28992
0
32752
17648
14992
31968
0
31296
26528
144
32752
9728
18880
30016
0
32752
24736
8320
32752
5968
21824
29216
0
32752
21440
11408
32752
1760
24032
29152
0
32752
24832
7856
32752
3440
23504
29200
0
32752
18992
14272
32720
0
30208
28000
480
32752
11344
18528
30768
0
32752
23104
9776
32752
384
29056
27424
944
32752
8496
20544
29488
0
32752
22448
11568
32752
17056
13040
32752
3712
24736
29296
0
32752
19760
10672
32752
2112
26208
28448
0
32752
13424
17872
30064
0
32752
25408
4704
32752
7440
20528
29456
0
32752
20688
11104
32752
1664
25600
28544
0
32752
15184
15872
31952
0
32112
23952
304
32752
14096
16016
31296
0
30864
26880
1200
32752
8064
12320
23232
0
32752
22272
10752
32752
928
27520
28576
0
32752
11584
14960
29712
0
32752
22400
11280
32752
320
28592
27792
368
32752
9328
22752
29152
0
32752
22992
6144
32752
6352
21712
29472
0
32752
20240
18032
32528
0
32384
25712
5312
32752
3248
25216
28432
0
32752
17152
10432
32752
14096
13904
32752
4176
20592
31664
2320
19680
32576
6000
13872
32752
15856
7568
32752
23776
0
31840
28880
0
32368
32096
0
30496
29088
0
25872
30064
784
21680
31600
1296
21536
23696
1184
20144
31008
2096
20864
30720
896
22048
32752
4016
17440
32192
4464
19168
32752
5136
18256
32752
9856
16
22896
32160
4032
16944
32752
8416
14016
32752
15984
11552
32752
17200
10608
32752
14832
11840
32752
13936
9616
32752
25248
0
32752
29008
0
27216
29168
0
30480
28736
0
28912
29456
0
22080
31632
6192
2224
32752
26336
0
32752
25568
16
32752
24512
80
32752
25440
0
32752
26608
0
31856
29200
0
27872
29152
0
32480
26624
0
32752
28080
0
31472
29280
0
26800
32256
2160
22080
32752
288
17984
32752
4016
19152
32752
5952
15744
32752
10560
5728
32752
23760
992
32752
32752
27360
0
23056
32752
28128
0
27264
29808
0
18016
32752
3984
15632
32752
4384
18720
32752
1248
20960
31872
13872
1184
32752
23216
880
32752
25264
0
32400
28976
0
25664
31456
448
21648
31296
592
21232
32032
3248
16992
32752
19456
1552
32752
24832
0
32752
28416
0
32752
23504
0
32752
25712
0
32752
30512
4928
15728
32752
16608
11312
32752
18960
5584
32752
17920
7072
32752
15712
8848
32752
18496
0
26800
32752
27040
0
28752
30240
5808
18192
32752
4144
20608
32752
1360
22944
31792
0
23632
32752
2848
16960
32752
23008
0
32752
26496
0
32752
24416
16
32752
25920
0
32752
29728
0
32752
28560
0
14720
32752
21872
1168
32752
23968
0
32752
26992
0
32752
27696
0
32752
28192
0
31120
28784
0
18080
32752
17264
5392
32752
18480
9104
32752
11968
14304
31152
12208
15616
29728
15536
14336
30448
19264
10128
31104
26160
6224
29920
27056
1712
14240
30784
20752
12496
31360
22912
10976
31616
26208
9536
30480
26144
3920
28656
27776
4880
29520
26688
6480
30624
25568
19152
28416
25440
9328
31216
25504
7824
30608
26384
5280
28112
26288
2896
25888
27968
1328
21600
27648
9168
15872
29120
15856
14144
32752
19248
11712
31424
24288
6704
27424
28192
1792
22528
27472
528
25664
27808
3056
28432
27664
5248
29200
27728
4144
27920
27824
1568
11072
29552
28432
1760
22320
27520
9456
17696
27520
11360
19280
27472
14832
14384
30640
19792
11968
31488
26960
2656
25168
28144
1488
21088
27392
12592
15680
29872
22976
9696
31408
25824
9184
32752
23632
7968
31040
27248
6160
30160
26944
6736
30256
27040
6288
25904
29152
3840
27600
28128
1904
22608
26960
3008
22720
27952
20320
13264
30576
17152
14416
29792
18368
13456
30624
20592
11648
31008
23968
7168
30096
26416
5984
28992
28496
2160
25840
28288
1536
23552
27856
1584
22384
27424
3664
20160
27136
10464
5440
22480
27184
6688
6416
21488
30960
18656
7264
4272
24048
27504
18272
3696
24496
30816
27072
5344
17232
31808
27648
7264
2768
23456
14144
24784
27600
28240
27808
2000
22160
28496
10160
16736
27440
11216
12048
31328
18688
6352
31152
27552
5232
30880
30272
3888
29872
26272
1808
17936
27280
10176
14944
28144
12208
12976
27488
27136
2704
28976
27808
4288
30240
28032
3232
28016
26928
4176
22784
27680
4848
18320
32416
25824
384
24384
27856
3792
864
18272
32336
25792
7952
30352
27936
4912
19904
31968
24976
5568
32752
23808
13424
29392
13536
19328
27584
656
28336
28320
2784
30512
23328
6656
30576
26048
1488
13200
31472
27232
6272
32352
20000
12560
29232
10000
17840
27488
2288
24720
29120
3280
31808
25904
10480
32128
12656
18864
28352
4464
23936
28928
3600
30960
26640
7040
31824
20464
5264
31808
26992
11424
2448
17552
27792
17968
3776
30544
28096
2432
31872
26064
6096
16
2384
13888
21184
27920
21856
0
15632
31376
28336
18432
7392
12576
21312
23760
11152
3056
7712
30992
27456
3312
23072
30416
22096
12736
28880
6928
20544
27104
1040
28096
26880
10432
30096
26624
4000
29792
27712
29056
8480
12448
31584
25024
9440
31744
25264
10208
32192
28048
0
27536
28128
720
24704
28256
22432
7008
13408
29520
32752
25808
3680
24704
27248
27872
25968
176
27376
28256
1120
22096
26512
4272
22848
27568
2496
19200
30128
11904
13424
29152
11968
21184
26496
3184
19184
27600
992
25840
28160
752
24736
27472
1024
21040
29792
1456
27776
28432
4992
15280
32464
27344
7984
12880
13264
30896
28016
27536
1216
19712
26688
29024
13040
14272
32752
25488
10288
31040
29792
10608
32752
18288
17072
19696
25440
7360
27008
27152
6704
23904
27920
2256
29408
27232
8576
17840
31120
32752
3024
27776
26928
8368
15744
31568
18304
27552
12144
5872
32752
23040
11648
30288
10896
20016
26896
2864
30512
23344
14816
27248
320
26608
27728
8864
31024
11440
19104
27808
2384
30880
22976
13440
28032
9216
22688
29024
6592
31680
12416
19168
27872
2208
30448
26032
12384
29504
7760
22144
28640
944
28864
27456
8688
32096
23408
8528
28752
30896
25360
8400
21200
25968
6592
29808
24128
13840
28304
4752
23824
28432
5264
30304
26768
7776
32080
22704
12848
30528
18544
11184
32112
24672
8144
30816
27616
4208
29632
27840
5216
30544
27360
5744
30896
28960
3120
26880
27712
1824
20672
27376
8144
18432
27728
12256
17536
25856
14816
13744
26576
24848
12496
26832
26912
8624
32032
23696
6560
31424
21408
12672
30832
17680
13504
30592
19584
12240
32128
28016
8720
12992
31872
27648
2800
20304
27776
27344
21072
7568
32752
19024
16032
27488
1376
26976
27888
6848
31808
14512
18912
27488
1792
27232
27312
11360
29216
6400
23408
28656
4800
32144
18256
17408
27440
832
30224
26304
11488
29264
7840
21808
28448
4688
31120
23872
13456
28304
1952
25264
28128
7056
31648
13744
19056
27648
2544
29776
25936
12848
28304
10336
20816
29216
4928
32128
16160
18384
27600
1776
30432
25456
12976
28464
3104
25584
27840
6688
32112
14832
18576
27520
1808
30224
24928
13744
27936
3920
24656
28448
5856
31936
17952
17584
27088
1280
29904
28272
5392
28608
20320
15616
27600
1728
26768
27840
8080
31600
12480
19408
27696
2640
32320
24192
13856
28224
4736
24720
28496
4832
31936
20176
16384
27392
192
28160
27024
9808
30272
11200
19936
27664
3280
30528
24576
13936
28016
2256
24400
28256
3632
31392
21920
15616
27808
1904
27120
27680
8608
31488
10944
19888
27760
2128
30512
24240
13712
28032
3664
24048
28608
4656
31824
19440
16992
27184
1040
28176
27184
8416
31072
12448
19456
27744
2064
32752
23776
13456
28240
6112
21472
28016
3808
31520
20384
16432
27472
1520
30304
22688
18928
19568
19632
19552
19584
19584
19584
19568
19584
19568
19584
19792
19664
19504
18976
19072
18960
19728
20240
20448
20608
20800
21104
21184
21040
20880
21504
21216
20576
20432
20576
20576
20784
20560
20944
20400
22960
32752
32752
19024
21168
21472
20592
20720
20688
20752
21552
21680
21840
22192
22480
23808
24560
25264
25888
26864
26352
25472
23504
20896
19184
18256
17056
16752
16720
16880
16848
16784
17104
16768
17120
17072
16944
17648
16592
15840
15680
15296
17216
16976
16896
17440
16192
17296
16080
16368
16176
16112
16576
16768
17536
17616
18176
18080
19184
19584
19440
19424
19456
19088
19472
19408
19392
19232
21488
32560
32752
16240
21216
20608
20848
22128
22496
21056
22464
21216
5408
31056
21344
16640
21328
19472
19264
19632
19760
19904
32752
32752
5104
32544
17632
16704
27696
6480
20560
27376
1680
22848
28080
2016
22464
28112
400
25728
27920
4336
19856
27728
592
21984
22736
18160
19584
19504
19488
19504
19504
19472
19552
19408
19504
19696
20768
27968
20720
20960
21456
28640
10288
30880
13760
14304
31952
25920
8288
31920
26464
6592
31136
23792
11968
31152
13632
12352
29872
11888
17904
32000
24608
4608
20288
14976
17920
28144
1504
30144
25376
12000
28864
7344
21984
27968
14208
27568
23792
14224
28208
4336
23760
28576
4816
31824
20000
16272
27936
11040
14736
30880
21952
10112
31472
27328
3744
29136
28576
1408
25568
26816
1232
22640
27792
2512
22192
27600
944
24624
27488
8576
16688
28192
7968
19088
27504
7984
17840
28320
9264
18480
27520
6752
19392
27504
3808
21264
27408
1232
20816
27360
5152
19824
27360
0
22800
26752
10048
17152
28128
8288
18944
27392
4032
21408
27488
6096
21520
28256
1504
22224
27104
3488
20496
27328
7408
7056
29568
27840
4208
29296
27856
2016
21104
27344
4944
19600
27456
8944
18624
28176
13968
14800
31488
26576
4752
29552
28496
1536
27216
25440
3648
28576
28560
3744
30144
27360
5616
31648
26016
8144
31984
27936
4144
27936
28096
1344
21952
27408
6752
18464
28032
9312
18512
27040
8320
18128
27808
7568
18384
27952
12272
10816
31856
26224
0
28064
27360
7616
31920
24384
9856
31888
22416
10624
32016
26960
192
30000
28176
2320
24800
27744
1216
23040
27408
3584
20080
28144
